phi[deg] B[T]
0.00 2.03064
0.50 2.02981
1.00 2.02912
1.50 2.02856
2.00 2.02814
2.50 2.02807
3.00 2.02722
3.50 2.02687
4.00 2.02666
4.50 2.02658
5.00 2.02663
5.50 2.02681
6.00 2.02645
6.50 2.02622
7.00 2.02612
7.50 2.02519
8.00 2.02431
8.50 2.02366
9.00 2.02329
9.50 2.02304
10.00 2.02292
10.50 2.02076
11.00 2.01798
11.50 2.01585
12.00 2.01412
12.50 2.01250
13.00 2.01099
13.50 2.00938
14.00 2.00660
14.50 2.00305
15.00 1.99729
15.50 1.99224
16.00 1.98897
16.50 1.98577
17.00 1.98266
17.50 1.97857
18.00 1.97132
18.50 1.96413
19.00 1.95728
19.50 1.95283
20.00 1.94843
20.50 1.94244
21.00 1.93398
21.50 1.92556
22.00 1.91593
22.50 1.90480
23.00 1.89369
23.50 1.88261
24.00 1.86889
24.50 1.85457
25.00 1.84029
25.50 1.82588
26.00 1.80868
26.50 1.79217
27.00 1.77589
27.50 1.75963
28.00 1.74233
28.50 1.72370
29.00 1.70498
29.50 1.68558
30.00 1.66619
30.50 1.64683
31.00 1.62536
31.50 1.60275
32.00 1.58277
32.50 1.56278
33.00 1.54278
33.50 1.52131
34.00 1.49793
34.50 1.47453
35.00 1.45054
35.50 1.42591
36.00 1.40127
36.50 1.37662
37.00 1.35143
37.50 1.32502
38.00 1.29963
38.50 1.27423
39.00 1.24881
39.50 1.22297
40.00 1.19646
40.50 1.17132
41.00 1.14615
41.50 1.12091
42.00 1.09441
42.50 1.06916
43.00 1.04474
43.50 1.02011
44.00 0.99495
44.50 0.96976
45.00 0.94446
45.50 0.91955
46.00 0.89528
46.50 0.87095
47.00 0.84675
47.50 0.82264
48.00 0.79786
48.50 0.77257
49.00 0.74866
49.50 0.72493
50.00 0.70109
50.50 0.67709
51.00 0.65453
51.50 0.63192
52.00 0.60925
52.50 0.58648
53.00 0.56266
53.50 0.54041
54.00 0.51885
54.50 0.49722
55.00 0.47553
55.50 0.45376
56.00 0.43182
56.50 0.41201
57.00 0.39214
57.50 0.37220
58.00 0.35230
58.50 0.33381
59.00 0.31527
59.50 0.29627
60.00 0.27722
60.50 0.25812
61.00 0.23898
61.50 0.22019
62.00 0.20655
62.50 0.19309
63.00 0.17959
63.50 0.16606
64.00 0.15249
64.50 0.13862
65.00 0.12948
65.50 0.12049
66.00 0.11150
66.50 0.10246
67.00 0.09331
67.50 0.08416
68.00 0.07686
68.50 0.07186
69.00 0.06686
69.50 0.06186
70.00 0.05676
70.50 0.05166
71.00 0.04655
71.50 0.04176
72.00 0.03879
72.50 0.03602
73.00 0.03324
73.50 0.03047
74.00 0.02770
74.50 0.02494
75.00 0.02296
75.50 0.02143
76.00 0.01990
76.50 0.01837
77.00 0.01685
77.50 0.01526
78.00 0.01368
78.50 0.01265
79.00 0.01183
79.50 0.01101
80.00 0.01020
80.50 0.00938
81.00 0.00856
81.50 0.00776
82.00 0.00719
82.50 0.00672
83.00 0.00628
83.50 0.00583
84.00 0.00539
84.50 0.00499
85.00 0.00475
85.50 0.00452
86.00 0.00429
86.50 0.00404
87.00 0.00379
87.50 0.00371
88.00 0.00361
88.50 0.00351
89.00 0.00341
89.50 0.00332
90.00 0.00322
90.00 0.00322
90.50 0.00332
91.00 0.00341
91.50 0.00351
92.00 0.00361
92.50 0.00371
93.00 0.00379
93.50 0.00404
94.00 0.00429
94.50 0.00452
95.00 0.00475
95.50 0.00499
96.00 0.00539
96.50 0.00583
97.00 0.00628
97.50 0.00672
98.00 0.00719
98.50 0.00776
99.00 0.00856
99.50 0.00938
100.00 0.01020
100.50 0.01101
101.00 0.01183
101.50 0.01265
102.00 0.01368
102.50 0.01526
103.00 0.01685
103.50 0.01837
104.00 0.01990
104.50 0.02143
105.00 0.02296
105.50 0.02494
106.00 0.02770
106.50 0.03047
107.00 0.03324
107.50 0.03602
108.00 0.03879
108.50 0.04176
109.00 0.04655
109.50 0.05166
110.00 0.05676
110.50 0.06186
111.00 0.06686
111.50 0.07186
112.00 0.07686
112.50 0.08416
113.00 0.09331
113.50 0.10246
114.00 0.11150
114.50 0.12049
115.00 0.12948
115.50 0.13862
116.00 0.15249
116.50 0.16606
117.00 0.17959
117.50 0.19309
118.00 0.20655
118.50 0.22019
119.00 0.23898
119.50 0.25812
120.00 0.27722
120.50 0.29627
121.00 0.31527
121.50 0.33381
122.00 0.35230
122.50 0.37220
123.00 0.39214
123.50 0.41201
124.00 0.43182
124.50 0.45376
125.00 0.47553
125.50 0.49722
126.00 0.51885
126.50 0.54041
127.00 0.56266
127.50 0.58648
128.00 0.60925
128.50 0.63192
129.00 0.65453
129.50 0.67709
130.00 0.70109
130.50 0.72493
131.00 0.74866
131.50 0.77257
132.00 0.79786
132.50 0.82264
133.00 0.84675
133.50 0.87095
134.00 0.89528
134.50 0.91955
135.00 0.94446
135.50 0.96976
136.00 0.99495
136.50 1.02011
137.00 1.04474
137.50 1.06916
138.00 1.09441
138.50 1.12091
139.00 1.14615
139.50 1.17132
140.00 1.19646
140.50 1.22297
141.00 1.24881
141.50 1.27423
142.00 1.29963
142.50 1.32502
143.00 1.35143
143.50 1.37662
144.00 1.40127
144.50 1.42591
145.00 1.45054
145.50 1.47453
146.00 1.49793
146.50 1.52131
147.00 1.54278
147.50 1.56278
148.00 1.58277
148.50 1.60275
149.00 1.62536
149.50 1.64683
150.00 1.66619
150.50 1.68558
151.00 1.70498
151.50 1.72370
152.00 1.74233
152.50 1.75963
153.00 1.77589
153.50 1.79217
154.00 1.80868
154.50 1.82588
155.00 1.84029
155.50 1.85457
156.00 1.86889
156.50 1.88261
157.00 1.89369
157.50 1.90480
158.00 1.91593
158.50 1.92556
159.00 1.93398
159.50 1.94244
160.00 1.94843
160.50 1.95283
161.00 1.95728
161.50 1.96413
162.00 1.97132
162.50 1.97857
163.00 1.98266
163.50 1.98577
164.00 1.98897
164.50 1.99224
165.00 1.99729
165.50 2.00305
166.00 2.00660
166.50 2.00938
167.00 2.01099
167.50 2.01250
168.00 2.01412
168.50 2.01585
169.00 2.01798
169.50 2.02076
170.00 2.02292
170.50 2.02304
171.00 2.02329
171.50 2.02366
172.00 2.02431
172.50 2.02519
173.00 2.02612
173.50 2.02622
174.00 2.02645
174.50 2.02681
175.00 2.02663
175.50 2.02658
176.00 2.02666
176.50 2.02687
177.00 2.02722
177.50 2.02807
178.00 2.02814
178.50 2.02856
179.00 2.02912
179.50 2.02981
180.00 2.03064
180.00 2.03064
180.50 2.02981
181.00 2.02912
181.50 2.02856
182.00 2.02814
182.50 2.02807
183.00 2.02722
183.50 2.02687
184.00 2.02666
184.50 2.02658
185.00 2.02663
185.50 2.02681
186.00 2.02645
186.50 2.02622
187.00 2.02612
187.50 2.02519
188.00 2.02431
188.50 2.02366
189.00 2.02329
189.50 2.02304
190.00 2.02292
190.50 2.02076
191.00 2.01798
191.50 2.01585
192.00 2.01412
192.50 2.01250
193.00 2.01099
193.50 2.00938
194.00 2.00660
194.50 2.00305
195.00 1.99729
195.50 1.99224
196.00 1.98897
196.50 1.98577
197.00 1.98266
197.50 1.97857
198.00 1.97132
198.50 1.96413
199.00 1.95728
199.50 1.95283
200.00 1.94843
200.50 1.94244
201.00 1.93398
201.50 1.92556
202.00 1.91593
202.50 1.90480
203.00 1.89369
203.50 1.88261
204.00 1.86889
204.50 1.85457
205.00 1.84029
205.50 1.82588
206.00 1.80868
206.50 1.79217
207.00 1.77589
207.50 1.75963
208.00 1.74233
208.50 1.72370
209.00 1.70498
209.50 1.68558
210.00 1.66619
210.50 1.64683
211.00 1.62536
211.50 1.60275
212.00 1.58277
212.50 1.56278
213.00 1.54278
213.50 1.52131
214.00 1.49793
214.50 1.47453
215.00 1.45054
215.50 1.42591
216.00 1.40127
216.50 1.37662
217.00 1.35143
217.50 1.32502
218.00 1.29963
218.50 1.27423
219.00 1.24881
219.50 1.22297
220.00 1.19646
220.50 1.17132
221.00 1.14615
221.50 1.12091
222.00 1.09441
222.50 1.06916
223.00 1.04474
223.50 1.02011
224.00 0.99495
224.50 0.96976
225.00 0.94446
225.50 0.91955
226.00 0.89528
226.50 0.87095
227.00 0.84675
227.50 0.82264
228.00 0.79786
228.50 0.77257
229.00 0.74866
229.50 0.72493
230.00 0.70109
230.50 0.67709
231.00 0.65453
231.50 0.63192
232.00 0.60925
232.50 0.58648
233.00 0.56266
233.50 0.54041
234.00 0.51885
234.50 0.49722
235.00 0.47553
235.50 0.45376
236.00 0.43182
236.50 0.41201
237.00 0.39214
237.50 0.37220
238.00 0.35230
238.50 0.33381
239.00 0.31527
239.50 0.29627
240.00 0.27722
240.50 0.25812
241.00 0.23898
241.50 0.22019
242.00 0.20655
242.50 0.19309
243.00 0.17959
243.50 0.16606
244.00 0.15249
244.50 0.13862
245.00 0.12948
245.50 0.12049
246.00 0.11150
246.50 0.10246
247.00 0.09331
247.50 0.08416
248.00 0.07686
248.50 0.07186
249.00 0.06686
249.50 0.06186
250.00 0.05676
250.50 0.05166
251.00 0.04655
251.50 0.04176
252.00 0.03879
252.50 0.03602
253.00 0.03324
253.50 0.03047
254.00 0.02770
254.50 0.02494
255.00 0.02296
255.50 0.02143
256.00 0.01990
256.50 0.01837
257.00 0.01685
257.50 0.01526
258.00 0.01368
258.50 0.01265
259.00 0.01183
259.50 0.01101
260.00 0.01020
260.50 0.00938
261.00 0.00856
261.50 0.00776
262.00 0.00719
262.50 0.00672
263.00 0.00628
263.50 0.00583
264.00 0.00539
264.50 0.00499
265.00 0.00475
265.50 0.00452
266.00 0.00429
266.50 0.00404
267.00 0.00379
267.50 0.00371
268.00 0.00361
268.50 0.00351
269.00 0.00341
269.50 0.00332
270.00 0.00322
270.00 0.00322
270.50 0.00332
271.00 0.00341
271.50 0.00351
272.00 0.00361
272.50 0.00371
273.00 0.00379
273.50 0.00404
274.00 0.00429
274.50 0.00452
275.00 0.00475
275.50 0.00499
276.00 0.00539
276.50 0.00583
277.00 0.00628
277.50 0.00672
278.00 0.00719
278.50 0.00776
279.00 0.00856
279.50 0.00938
280.00 0.01020
280.50 0.01101
281.00 0.01183
281.50 0.01265
282.00 0.01368
282.50 0.01526
283.00 0.01685
283.50 0.01837
284.00 0.01990
284.50 0.02143
285.00 0.02296
285.50 0.02494
286.00 0.02770
286.50 0.03047
287.00 0.03324
287.50 0.03602
288.00 0.03879
288.50 0.04176
289.00 0.04655
289.50 0.05166
290.00 0.05676
290.50 0.06186
291.00 0.06686
291.50 0.07186
292.00 0.07686
292.50 0.08416
293.00 0.09331
293.50 0.10246
294.00 0.11150
294.50 0.12049
295.00 0.12948
295.50 0.13862
296.00 0.15249
296.50 0.16606
297.00 0.17959
297.50 0.19309
298.00 0.20655
298.50 0.22019
299.00 0.23898
299.50 0.25812
300.00 0.27722
300.50 0.29627
301.00 0.31527
301.50 0.33381
302.00 0.35230
302.50 0.37220
303.00 0.39214
303.50 0.41201
304.00 0.43182
304.50 0.45376
305.00 0.47553
305.50 0.49722
306.00 0.51885
306.50 0.54041
307.00 0.56266
307.50 0.58648
308.00 0.60925
308.50 0.63192
309.00 0.65453
309.50 0.67709
310.00 0.70109
310.50 0.72493
311.00 0.74866
311.50 0.77257
312.00 0.79786
312.50 0.82264
313.00 0.84675
313.50 0.87095
314.00 0.89528
314.50 0.91955
315.00 0.94446
315.50 0.96976
316.00 0.99495
316.50 1.02011
317.00 1.04474
317.50 1.06916
318.00 1.09441
318.50 1.12091
319.00 1.14615
319.50 1.17132
320.00 1.19646
320.50 1.22297
321.00 1.24881
321.50 1.27423
322.00 1.29963
322.50 1.32502
323.00 1.35143
323.50 1.37662
324.00 1.40127
324.50 1.42591
325.00 1.45054
325.50 1.47453
326.00 1.49793
326.50 1.52131
327.00 1.54278
327.50 1.56278
328.00 1.58277
328.50 1.60275
329.00 1.62536
329.50 1.64683
330.00 1.66619
330.50 1.68558
331.00 1.70498
331.50 1.72370
332.00 1.74233
332.50 1.75963
333.00 1.77589
333.50 1.79217
334.00 1.80868
334.50 1.82588
335.00 1.84029
335.50 1.85457
336.00 1.86889
336.50 1.88261
337.00 1.89369
337.50 1.90480
338.00 1.91593
338.50 1.92556
339.00 1.93398
339.50 1.94244
340.00 1.94843
340.50 1.95283
341.00 1.95728
341.50 1.96413
342.00 1.97132
342.50 1.97857
343.00 1.98266
343.50 1.98577
344.00 1.98897
344.50 1.99224
345.00 1.99729
345.50 2.00305
346.00 2.00660
346.50 2.00938
347.00 2.01099
347.50 2.01250
348.00 2.01412
348.50 2.01585
349.00 2.01798
349.50 2.02076
350.00 2.02292
350.50 2.02304
351.00 2.02329
351.50 2.02366
352.00 2.02431
352.50 2.02519
353.00 2.02612
353.50 2.02622
354.00 2.02645
354.50 2.02681
355.00 2.02663
355.50 2.02658
356.00 2.02666
356.50 2.02687
357.00 2.02722
357.50 2.02807
358.00 2.02814
358.50 2.02856
359.00 2.02912
359.50 2.02981
360.00 2.03064
