phi[deg] B[T]
0.00 2.03074
0.50 2.02991
1.00 2.02921
1.50 2.02865
2.00 2.02823
2.50 2.02816
3.00 2.02731
3.50 2.02696
4.00 2.02675
4.50 2.02667
5.00 2.02672
5.50 2.02690
6.00 2.02654
6.50 2.02631
7.00 2.02621
7.50 2.02529
8.00 2.02440
8.50 2.02375
9.00 2.02338
9.50 2.02313
10.00 2.02301
10.50 2.02085
11.00 2.01808
11.50 2.01594
12.00 2.01421
12.50 2.01259
13.00 2.01108
13.50 2.00947
14.00 2.00669
14.50 2.00314
15.00 1.99738
15.50 1.99233
16.00 1.98905
16.50 1.98586
17.00 1.98275
17.50 1.97866
18.00 1.97140
18.50 1.96421
19.00 1.95736
19.50 1.95292
20.00 1.94852
20.50 1.94253
21.00 1.93406
21.50 1.92564
22.00 1.91601
22.50 1.90488
23.00 1.89378
23.50 1.88269
24.00 1.86897
24.50 1.85465
25.00 1.84037
25.50 1.82596
26.00 1.80876
26.50 1.79225
27.00 1.77597
27.50 1.75970
28.00 1.74240
28.50 1.72378
29.00 1.70505
29.50 1.68565
30.00 1.66627
30.50 1.64690
31.00 1.62543
31.50 1.60282
32.00 1.58284
32.50 1.56285
33.00 1.54285
33.50 1.52138
34.00 1.49800
34.50 1.47460
35.00 1.45060
35.50 1.42597
36.00 1.40133
36.50 1.37668
37.00 1.35149
37.50 1.32508
38.00 1.29969
38.50 1.27428
39.00 1.24886
39.50 1.22303
40.00 1.19651
40.50 1.17137
41.00 1.14620
41.50 1.12096
42.00 1.09446
42.50 1.06920
43.00 1.04479
43.50 1.02015
44.00 0.99499
44.50 0.96980
45.00 0.94450
45.50 0.91959
46.00 0.89532
46.50 0.87098
47.00 0.84678
47.50 0.82267
48.00 0.79789
48.50 0.77260
49.00 0.74869
49.50 0.72495
50.00 0.70112
50.50 0.67711
51.00 0.65455
51.50 0.63193
52.00 0.60926
52.50 0.58650
53.00 0.56267
53.50 0.54042
54.00 0.51885
54.50 0.49722
55.00 0.47553
55.50 0.45375
56.00 0.43181
56.50 0.41200
57.00 0.39213
57.50 0.37218
58.00 0.35228
58.50 0.33379
59.00 0.31525
59.50 0.29624
60.00 0.27719
60.50 0.25809
61.00 0.23895
61.50 0.22016
62.00 0.20652
62.50 0.19305
63.00 0.17955
63.50 0.16602
64.00 0.15245
64.50 0.13858
65.00 0.12944
65.50 0.12045
66.00 0.11146
66.50 0.10242
67.00 0.09327
67.50 0.08412
68.00 0.07682
68.50 0.07182
69.00 0.06682
69.50 0.06181
70.00 0.05672
70.50 0.05161
71.00 0.04651
71.50 0.04172
72.00 0.03875
72.50 0.03597
73.00 0.03320
73.50 0.03043
74.00 0.02766
74.50 0.02490
75.00 0.02292
75.50 0.02139
76.00 0.01986
76.50 0.01833
77.00 0.01680
77.50 0.01522
78.00 0.01364
78.50 0.01261
79.00 0.01179
79.50 0.01097
80.00 0.01016
80.50 0.00934
81.00 0.00852
81.50 0.00772
82.00 0.00715
82.50 0.00668
83.00 0.00624
83.50 0.00579
84.00 0.00535
84.50 0.00495
85.00 0.00472
85.50 0.00448
86.00 0.00425
86.50 0.00401
87.00 0.00376
87.50 0.00367
88.00 0.00358
88.50 0.00348
89.00 0.00338
89.50 0.00328
90.00 0.00318
90.00 0.00318
90.50 0.00328
91.00 0.00338
91.50 0.00348
92.00 0.00358
92.50 0.00367
93.00 0.00376
93.50 0.00401
94.00 0.00425
94.50 0.00448
95.00 0.00472
95.50 0.00495
96.00 0.00535
96.50 0.00579
97.00 0.00624
97.50 0.00668
98.00 0.00715
98.50 0.00772
99.00 0.00852
99.50 0.00934
100.00 0.01016
100.50 0.01097
101.00 0.01179
101.50 0.01261
102.00 0.01364
102.50 0.01522
103.00 0.01680
103.50 0.01833
104.00 0.01986
104.50 0.02139
105.00 0.02292
105.50 0.02490
106.00 0.02766
106.50 0.03043
107.00 0.03320
107.50 0.03597
108.00 0.03875
108.50 0.04172
109.00 0.04651
109.50 0.05161
110.00 0.05672
110.50 0.06181
111.00 0.06682
111.50 0.07182
112.00 0.07682
112.50 0.08412
113.00 0.09327
113.50 0.10242
114.00 0.11146
114.50 0.12045
115.00 0.12944
115.50 0.13858
116.00 0.15245
116.50 0.16602
117.00 0.17955
117.50 0.19305
118.00 0.20652
118.50 0.22016
119.00 0.23895
119.50 0.25809
120.00 0.27719
120.50 0.29624
121.00 0.31525
121.50 0.33379
122.00 0.35228
122.50 0.37218
123.00 0.39213
123.50 0.41200
124.00 0.43181
124.50 0.45375
125.00 0.47553
125.50 0.49722
126.00 0.51885
126.50 0.54042
127.00 0.56267
127.50 0.58650
128.00 0.60926
128.50 0.63193
129.00 0.65455
129.50 0.67711
130.00 0.70112
130.50 0.72495
131.00 0.74869
131.50 0.77260
132.00 0.79789
132.50 0.82267
133.00 0.84678
133.50 0.87098
134.00 0.89532
134.50 0.91959
135.00 0.94450
135.50 0.96980
136.00 0.99499
136.50 1.02015
137.00 1.04479
137.50 1.06920
138.00 1.09446
138.50 1.12096
139.00 1.14620
139.50 1.17137
140.00 1.19651
140.50 1.22303
141.00 1.24886
141.50 1.27428
142.00 1.29969
142.50 1.32508
143.00 1.35149
143.50 1.37668
144.00 1.40133
144.50 1.42597
145.00 1.45060
145.50 1.47460
146.00 1.49800
146.50 1.52138
147.00 1.54285
147.50 1.56285
148.00 1.58284
148.50 1.60282
149.00 1.62543
149.50 1.64690
150.00 1.66627
150.50 1.68565
151.00 1.70505
151.50 1.72378
152.00 1.74240
152.50 1.75970
153.00 1.77597
153.50 1.79225
154.00 1.80876
154.50 1.82596
155.00 1.84037
155.50 1.85465
156.00 1.86897
156.50 1.88269
157.00 1.89378
157.50 1.90488
158.00 1.91601
158.50 1.92564
159.00 1.93406
159.50 1.94253
160.00 1.94852
160.50 1.95292
161.00 1.95736
161.50 1.96421
162.00 1.97140
162.50 1.97866
163.00 1.98275
163.50 1.98586
164.00 1.98905
164.50 1.99233
165.00 1.99738
165.50 2.00314
166.00 2.00669
166.50 2.00947
167.00 2.01108
167.50 2.01259
168.00 2.01421
168.50 2.01594
169.00 2.01808
169.50 2.02085
170.00 2.02301
170.50 2.02313
171.00 2.02338
171.50 2.02375
172.00 2.02440
172.50 2.02529
173.00 2.02621
173.50 2.02631
174.00 2.02654
174.50 2.02690
175.00 2.02672
175.50 2.02667
176.00 2.02675
176.50 2.02696
177.00 2.02731
177.50 2.02816
178.00 2.02823
178.50 2.02865
179.00 2.02921
179.50 2.02991
180.00 2.03074
180.00 2.03074
180.50 2.02991
181.00 2.02921
181.50 2.02865
182.00 2.02823
182.50 2.02816
183.00 2.02731
183.50 2.02696
184.00 2.02675
184.50 2.02667
185.00 2.02672
185.50 2.02690
186.00 2.02654
186.50 2.02631
187.00 2.02621
187.50 2.02529
188.00 2.02440
188.50 2.02375
189.00 2.02338
189.50 2.02313
190.00 2.02301
190.50 2.02085
191.00 2.01808
191.50 2.01594
192.00 2.01421
192.50 2.01259
193.00 2.01108
193.50 2.00947
194.00 2.00669
194.50 2.00314
195.00 1.99738
195.50 1.99233
196.00 1.98905
196.50 1.98586
197.00 1.98275
197.50 1.97866
198.00 1.97140
198.50 1.96421
199.00 1.95736
199.50 1.95292
200.00 1.94852
200.50 1.94253
201.00 1.93406
201.50 1.92564
202.00 1.91601
202.50 1.90488
203.00 1.89378
203.50 1.88269
204.00 1.86897
204.50 1.85465
205.00 1.84037
205.50 1.82596
206.00 1.80876
206.50 1.79225
207.00 1.77597
207.50 1.75970
208.00 1.74240
208.50 1.72378
209.00 1.70505
209.50 1.68565
210.00 1.66627
210.50 1.64690
211.00 1.62543
211.50 1.60282
212.00 1.58284
212.50 1.56285
213.00 1.54285
213.50 1.52138
214.00 1.49800
214.50 1.47460
215.00 1.45060
215.50 1.42597
216.00 1.40133
216.50 1.37668
217.00 1.35149
217.50 1.32508
218.00 1.29969
218.50 1.27428
219.00 1.24886
219.50 1.22303
220.00 1.19651
220.50 1.17137
221.00 1.14620
221.50 1.12096
222.00 1.09446
222.50 1.06920
223.00 1.04479
223.50 1.02015
224.00 0.99499
224.50 0.96980
225.00 0.94450
225.50 0.91959
226.00 0.89532
226.50 0.87098
227.00 0.84678
227.50 0.82267
228.00 0.79789
228.50 0.77260
229.00 0.74869
229.50 0.72495
230.00 0.70112
230.50 0.67711
231.00 0.65455
231.50 0.63193
232.00 0.60926
232.50 0.58650
233.00 0.56267
233.50 0.54042
234.00 0.51885
234.50 0.49722
235.00 0.47553
235.50 0.45375
236.00 0.43181
236.50 0.41200
237.00 0.39213
237.50 0.37218
238.00 0.35228
238.50 0.33379
239.00 0.31525
239.50 0.29624
240.00 0.27719
240.50 0.25809
241.00 0.23895
241.50 0.22016
242.00 0.20652
242.50 0.19305
243.00 0.17955
243.50 0.16602
244.00 0.15245
244.50 0.13858
245.00 0.12944
245.50 0.12045
246.00 0.11146
246.50 0.10242
247.00 0.09327
247.50 0.08412
248.00 0.07682
248.50 0.07182
249.00 0.06682
249.50 0.06181
250.00 0.05672
250.50 0.05161
251.00 0.04651
251.50 0.04172
252.00 0.03875
252.50 0.03597
253.00 0.03320
253.50 0.03043
254.00 0.02766
254.50 0.02490
255.00 0.02292
255.50 0.02139
256.00 0.01986
256.50 0.01833
257.00 0.01680
257.50 0.01522
258.00 0.01364
258.50 0.01261
259.00 0.01179
259.50 0.01097
260.00 0.01016
260.50 0.00934
261.00 0.00852
261.50 0.00772
262.00 0.00715
262.50 0.00668
263.00 0.00624
263.50 0.00579
264.00 0.00535
264.50 0.00495
265.00 0.00472
265.50 0.00448
266.00 0.00425
266.50 0.00401
267.00 0.00376
267.50 0.00367
268.00 0.00358
268.50 0.00348
269.00 0.00338
269.50 0.00328
270.00 0.00318
270.00 0.00318
270.50 0.00328
271.00 0.00338
271.50 0.00348
272.00 0.00358
272.50 0.00367
273.00 0.00376
273.50 0.00401
274.00 0.00425
274.50 0.00448
275.00 0.00472
275.50 0.00495
276.00 0.00535
276.50 0.00579
277.00 0.00624
277.50 0.00668
278.00 0.00715
278.50 0.00772
279.00 0.00852
279.50 0.00934
280.00 0.01016
280.50 0.01097
281.00 0.01179
281.50 0.01261
282.00 0.01364
282.50 0.01522
283.00 0.01680
283.50 0.01833
284.00 0.01986
284.50 0.02139
285.00 0.02292
285.50 0.02490
286.00 0.02766
286.50 0.03043
287.00 0.03320
287.50 0.03597
288.00 0.03875
288.50 0.04172
289.00 0.04651
289.50 0.05161
290.00 0.05672
290.50 0.06181
291.00 0.06682
291.50 0.07182
292.00 0.07682
292.50 0.08412
293.00 0.09327
293.50 0.10242
294.00 0.11146
294.50 0.12045
295.00 0.12944
295.50 0.13858
296.00 0.15245
296.50 0.16602
297.00 0.17955
297.50 0.19305
298.00 0.20652
298.50 0.22016
299.00 0.23895
299.50 0.25809
300.00 0.27719
300.50 0.29624
301.00 0.31525
301.50 0.33379
302.00 0.35228
302.50 0.37218
303.00 0.39213
303.50 0.41200
304.00 0.43181
304.50 0.45375
305.00 0.47553
305.50 0.49722
306.00 0.51885
306.50 0.54042
307.00 0.56267
307.50 0.58650
308.00 0.60926
308.50 0.63193
309.00 0.65455
309.50 0.67711
310.00 0.70112
310.50 0.72495
311.00 0.74869
311.50 0.77260
312.00 0.79789
312.50 0.82267
313.00 0.84678
313.50 0.87098
314.00 0.89532
314.50 0.91959
315.00 0.94450
315.50 0.96980
316.00 0.99499
316.50 1.02015
317.00 1.04479
317.50 1.06920
318.00 1.09446
318.50 1.12096
319.00 1.14620
319.50 1.17137
320.00 1.19651
320.50 1.22303
321.00 1.24886
321.50 1.27428
322.00 1.29969
322.50 1.32508
323.00 1.35149
323.50 1.37668
324.00 1.40133
324.50 1.42597
325.00 1.45060
325.50 1.47460
326.00 1.49800
326.50 1.52138
327.00 1.54285
327.50 1.56285
328.00 1.58284
328.50 1.60282
329.00 1.62543
329.50 1.64690
330.00 1.66627
330.50 1.68565
331.00 1.70505
331.50 1.72378
332.00 1.74240
332.50 1.75970
333.00 1.77597
333.50 1.79225
334.00 1.80876
334.50 1.82596
335.00 1.84037
335.50 1.85465
336.00 1.86897
336.50 1.88269
337.00 1.89378
337.50 1.90488
338.00 1.91601
338.50 1.92564
339.00 1.93406
339.50 1.94253
340.00 1.94852
340.50 1.95292
341.00 1.95736
341.50 1.96421
342.00 1.97140
342.50 1.97866
343.00 1.98275
343.50 1.98586
344.00 1.98905
344.50 1.99233
345.00 1.99738
345.50 2.00314
346.00 2.00669
346.50 2.00947
347.00 2.01108
347.50 2.01259
348.00 2.01421
348.50 2.01594
349.00 2.01808
349.50 2.02085
350.00 2.02301
350.50 2.02313
351.00 2.02338
351.50 2.02375
352.00 2.02440
352.50 2.02529
353.00 2.02621
353.50 2.02631
354.00 2.02654
354.50 2.02690
355.00 2.02672
355.50 2.02667
356.00 2.02675
356.50 2.02696
357.00 2.02731
357.50 2.02816
358.00 2.02823
358.50 2.02865
359.00 2.02921
359.50 2.02991
360.00 2.03074
