phi[deg] B[T]
0.00 1.17835
0.50 1.17818
1.00 1.17801
1.50 1.17785
2.00 1.17770
2.50 1.17754
3.00 1.17726
3.50 1.17681
4.00 1.17637
4.50 1.17593
5.00 1.17549
5.50 1.17513
6.00 1.17502
6.50 1.17460
7.00 1.17418
7.50 1.17375
8.00 1.17331
8.50 1.17286
9.00 1.17348
9.50 1.17413
10.00 1.17477
10.50 1.17525
11.00 1.17495
11.50 1.17464
12.00 1.17454
12.50 1.17567
13.00 1.17677
13.50 1.17794
14.00 1.17915
14.50 1.18034
15.00 1.18152
15.50 1.18272
16.00 1.18437
16.50 1.18601
17.00 1.18760
17.50 1.18898
18.00 1.19036
18.50 1.19190
19.00 1.19334
19.50 1.19423
20.00 1.19511
20.50 1.19603
21.00 1.19703
21.50 1.19801
22.00 1.19788
22.50 1.19616
23.00 1.19444
23.50 1.19270
24.00 1.19096
24.50 1.18823
25.00 1.18379
25.50 1.17965
26.00 1.17603
26.50 1.17238
27.00 1.16870
27.50 1.16315
28.00 1.15637
28.50 1.14955
29.00 1.14084
29.50 1.12999
30.00 1.11909
30.50 1.10814
31.00 1.09780
31.50 1.08871
32.00 1.07956
32.50 1.06599
33.00 1.04898
33.50 1.03188
34.00 1.01470
34.50 0.99785
35.00 0.98166
35.50 0.96540
36.00 0.94489
36.50 0.92246
37.00 0.89997
37.50 0.88059
38.00 0.86135
38.50 0.84199
39.00 0.82049
39.50 0.79562
40.00 0.77064
40.50 0.74663
41.00 0.72336
41.50 0.70000
42.00 0.67657
42.50 0.65083
43.00 0.62498
43.50 0.59906
44.00 0.57306
44.50 0.54831
45.00 0.52372
45.50 0.49923
46.00 0.47465
46.50 0.45243
47.00 0.43025
47.50 0.40804
48.00 0.38579
48.50 0.36745
49.00 0.34976
49.50 0.33202
50.00 0.31426
50.50 0.29647
51.00 0.27864
51.50 0.26070
52.00 0.24264
52.50 0.23028
53.00 0.21906
53.50 0.20784
54.00 0.19645
54.50 0.18505
55.00 0.17363
55.50 0.16221
56.00 0.15077
56.50 0.13933
57.00 0.13099
57.50 0.12394
58.00 0.11783
58.50 0.11171
59.00 0.10559
59.50 0.09946
60.00 0.09333
60.50 0.08719
61.00 0.08105
61.50 0.07496
62.00 0.07060
62.50 0.06624
63.00 0.06188
63.50 0.05852
64.00 0.05580
64.50 0.05308
65.00 0.05035
65.50 0.04763
66.00 0.04490
66.50 0.04217
67.00 0.03944
67.50 0.03672
68.00 0.03399
68.50 0.03170
69.00 0.02955
69.50 0.02741
70.00 0.02559
70.50 0.02442
71.00 0.02324
71.50 0.02206
72.00 0.02089
72.50 0.01971
73.00 0.01854
73.50 0.01736
74.00 0.01618
74.50 0.01506
75.00 0.01396
75.50 0.01311
76.00 0.01249
76.50 0.01186
77.00 0.01127
77.50 0.01071
78.00 0.01016
78.50 0.00960
79.00 0.00905
79.50 0.00849
80.00 0.00794
80.50 0.00738
81.00 0.00705
81.50 0.00679
82.00 0.00654
82.50 0.00628
83.00 0.00602
83.50 0.00576
84.00 0.00551
84.50 0.00526
85.00 0.00500
85.50 0.00473
86.00 0.00464
86.50 0.00454
87.00 0.00445
87.50 0.00435
88.00 0.00426
88.50 0.00417
89.00 0.00407
89.50 0.00398
90.00 0.00389
90.00 0.00389
90.50 0.00398
91.00 0.00407
91.50 0.00417
92.00 0.00426
92.50 0.00435
93.00 0.00445
93.50 0.00454
94.00 0.00464
94.50 0.00473
95.00 0.00500
95.50 0.00526
96.00 0.00551
96.50 0.00576
97.00 0.00602
97.50 0.00628
98.00 0.00654
98.50 0.00679
99.00 0.00705
99.50 0.00738
100.00 0.00794
100.50 0.00849
101.00 0.00905
101.50 0.00960
102.00 0.01016
102.50 0.01071
103.00 0.01127
103.50 0.01186
104.00 0.01249
104.50 0.01311
105.00 0.01396
105.50 0.01506
106.00 0.01618
106.50 0.01736
107.00 0.01854
107.50 0.01971
108.00 0.02089
108.50 0.02206
109.00 0.02324
109.50 0.02442
110.00 0.02559
110.50 0.02741
111.00 0.02955
111.50 0.03170
112.00 0.03399
112.50 0.03672
113.00 0.03944
113.50 0.04217
114.00 0.04490
114.50 0.04763
115.00 0.05035
115.50 0.05308
116.00 0.05580
116.50 0.05852
117.00 0.06188
117.50 0.06624
118.00 0.07060
118.50 0.07496
119.00 0.08105
119.50 0.08719
120.00 0.09333
120.50 0.09946
121.00 0.10559
121.50 0.11171
122.00 0.11783
122.50 0.12394
123.00 0.13099
123.50 0.13933
124.00 0.15077
124.50 0.16221
125.00 0.17363
125.50 0.18505
126.00 0.19645
126.50 0.20784
127.00 0.21906
127.50 0.23028
128.00 0.24264
128.50 0.26070
129.00 0.27864
129.50 0.29647
130.00 0.31426
130.50 0.33202
131.00 0.34976
131.50 0.36745
132.00 0.38579
132.50 0.40804
133.00 0.43025
133.50 0.45243
134.00 0.47465
134.50 0.49923
135.00 0.52372
135.50 0.54831
136.00 0.57306
136.50 0.59906
137.00 0.62498
137.50 0.65083
138.00 0.67657
138.50 0.70000
139.00 0.72336
139.50 0.74663
140.00 0.77064
140.50 0.79562
141.00 0.82049
141.50 0.84199
142.00 0.86135
142.50 0.88059
143.00 0.89997
143.50 0.92246
144.00 0.94489
144.50 0.96540
145.00 0.98166
145.50 0.99785
146.00 1.01470
146.50 1.03188
147.00 1.04898
147.50 1.06599
148.00 1.07956
148.50 1.08871
149.00 1.09780
149.50 1.10814
150.00 1.11909
150.50 1.12999
151.00 1.14084
151.50 1.14955
152.00 1.15637
152.50 1.16315
153.00 1.16870
153.50 1.17238
154.00 1.17603
154.50 1.17965
155.00 1.18379
155.50 1.18823
156.00 1.19096
156.50 1.19270
157.00 1.19444
157.50 1.19616
158.00 1.19788
158.50 1.19801
159.00 1.19703
159.50 1.19603
160.00 1.19511
160.50 1.19423
161.00 1.19334
161.50 1.19190
162.00 1.19036
162.50 1.18898
163.00 1.18760
163.50 1.18601
164.00 1.18437
164.50 1.18272
165.00 1.18152
165.50 1.18034
166.00 1.17915
166.50 1.17794
167.00 1.17677
167.50 1.17567
168.00 1.17454
168.50 1.17464
169.00 1.17495
169.50 1.17525
170.00 1.17477
170.50 1.17413
171.00 1.17348
171.50 1.17286
172.00 1.17331
172.50 1.17375
173.00 1.17418
173.50 1.17460
174.00 1.17502
174.50 1.17513
175.00 1.17549
175.50 1.17593
176.00 1.17637
176.50 1.17681
177.00 1.17726
177.50 1.17754
178.00 1.17770
178.50 1.17785
179.00 1.17801
179.50 1.17818
180.00 1.17835
180.00 1.17835
180.50 1.17818
181.00 1.17801
181.50 1.17785
182.00 1.17770
182.50 1.17754
183.00 1.17726
183.50 1.17681
184.00 1.17637
184.50 1.17593
185.00 1.17549
185.50 1.17513
186.00 1.17502
186.50 1.17460
187.00 1.17418
187.50 1.17375
188.00 1.17331
188.50 1.17286
189.00 1.17348
189.50 1.17413
190.00 1.17477
190.50 1.17525
191.00 1.17495
191.50 1.17464
192.00 1.17454
192.50 1.17567
193.00 1.17677
193.50 1.17794
194.00 1.17915
194.50 1.18034
195.00 1.18152
195.50 1.18272
196.00 1.18437
196.50 1.18601
197.00 1.18760
197.50 1.18898
198.00 1.19036
198.50 1.19190
199.00 1.19334
199.50 1.19423
200.00 1.19511
200.50 1.19603
201.00 1.19703
201.50 1.19801
202.00 1.19788
202.50 1.19616
203.00 1.19444
203.50 1.19270
204.00 1.19096
204.50 1.18823
205.00 1.18379
205.50 1.17965
206.00 1.17603
206.50 1.17238
207.00 1.16870
207.50 1.16315
208.00 1.15637
208.50 1.14955
209.00 1.14084
209.50 1.12999
210.00 1.11909
210.50 1.10814
211.00 1.09780
211.50 1.08871
212.00 1.07956
212.50 1.06599
213.00 1.04898
213.50 1.03188
214.00 1.01470
214.50 0.99785
215.00 0.98166
215.50 0.96540
216.00 0.94489
216.50 0.92246
217.00 0.89997
217.50 0.88059
218.00 0.86135
218.50 0.84199
219.00 0.82049
219.50 0.79562
220.00 0.77064
220.50 0.74663
221.00 0.72336
221.50 0.70000
222.00 0.67657
222.50 0.65083
223.00 0.62498
223.50 0.59906
224.00 0.57306
224.50 0.54831
225.00 0.52372
225.50 0.49923
226.00 0.47465
226.50 0.45243
227.00 0.43025
227.50 0.40804
228.00 0.38579
228.50 0.36745
229.00 0.34976
229.50 0.33202
230.00 0.31426
230.50 0.29647
231.00 0.27864
231.50 0.26070
232.00 0.24264
232.50 0.23028
233.00 0.21906
233.50 0.20784
234.00 0.19645
234.50 0.18505
235.00 0.17363
235.50 0.16221
236.00 0.15077
236.50 0.13933
237.00 0.13099
237.50 0.12394
238.00 0.11783
238.50 0.11171
239.00 0.10559
239.50 0.09946
240.00 0.09333
240.50 0.08719
241.00 0.08105
241.50 0.07496
242.00 0.07060
242.50 0.06624
243.00 0.06188
243.50 0.05852
244.00 0.05580
244.50 0.05308
245.00 0.05035
245.50 0.04763
246.00 0.04490
246.50 0.04217
247.00 0.03944
247.50 0.03672
248.00 0.03399
248.50 0.03170
249.00 0.02955
249.50 0.02741
250.00 0.02559
250.50 0.02442
251.00 0.02324
251.50 0.02206
252.00 0.02089
252.50 0.01971
253.00 0.01854
253.50 0.01736
254.00 0.01618
254.50 0.01506
255.00 0.01396
255.50 0.01311
256.00 0.01249
256.50 0.01186
257.00 0.01127
257.50 0.01071
258.00 0.01016
258.50 0.00960
259.00 0.00905
259.50 0.00849
260.00 0.00794
260.50 0.00738
261.00 0.00705
261.50 0.00679
262.00 0.00654
262.50 0.00628
263.00 0.00602
263.50 0.00576
264.00 0.00551
264.50 0.00526
265.00 0.00500
265.50 0.00473
266.00 0.00464
266.50 0.00454
267.00 0.00445
267.50 0.00435
268.00 0.00426
268.50 0.00417
269.00 0.00407
269.50 0.00398
270.00 0.00389
270.00 0.00389
270.50 0.00398
271.00 0.00407
271.50 0.00417
272.00 0.00426
272.50 0.00435
273.00 0.00445
273.50 0.00454
274.00 0.00464
274.50 0.00473
275.00 0.00500
275.50 0.00526
276.00 0.00551
276.50 0.00576
277.00 0.00602
277.50 0.00628
278.00 0.00654
278.50 0.00679
279.00 0.00705
279.50 0.00738
280.00 0.00794
280.50 0.00849
281.00 0.00905
281.50 0.00960
282.00 0.01016
282.50 0.01071
283.00 0.01127
283.50 0.01186
284.00 0.01249
284.50 0.01311
285.00 0.01396
285.50 0.01506
286.00 0.01618
286.50 0.01736
287.00 0.01854
287.50 0.01971
288.00 0.02089
288.50 0.02206
289.00 0.02324
289.50 0.02442
290.00 0.02559
290.50 0.02741
291.00 0.02955
291.50 0.03170
292.00 0.03399
292.50 0.03672
293.00 0.03944
293.50 0.04217
294.00 0.04490
294.50 0.04763
295.00 0.05035
295.50 0.05308
296.00 0.05580
296.50 0.05852
297.00 0.06188
297.50 0.06624
298.00 0.07060
298.50 0.07496
299.00 0.08105
299.50 0.08719
300.00 0.09333
300.50 0.09946
301.00 0.10559
301.50 0.11171
302.00 0.11783
302.50 0.12394
303.00 0.13099
303.50 0.13933
304.00 0.15077
304.50 0.16221
305.00 0.17363
305.50 0.18505
306.00 0.19645
306.50 0.20784
307.00 0.21906
307.50 0.23028
308.00 0.24264
308.50 0.26070
309.00 0.27864
309.50 0.29647
310.00 0.31426
310.50 0.33202
311.00 0.34976
311.50 0.36745
312.00 0.38579
312.50 0.40804
313.00 0.43025
313.50 0.45243
314.00 0.47465
314.50 0.49923
315.00 0.52372
315.50 0.54831
316.00 0.57306
316.50 0.59906
317.00 0.62498
317.50 0.65083
318.00 0.67657
318.50 0.70000
319.00 0.72336
319.50 0.74663
320.00 0.77064
320.50 0.79562
321.00 0.82049
321.50 0.84199
322.00 0.86135
322.50 0.88059
323.00 0.89997
323.50 0.92246
324.00 0.94489
324.50 0.96540
325.00 0.98166
325.50 0.99785
326.00 1.01470
326.50 1.03188
327.00 1.04898
327.50 1.06599
328.00 1.07956
328.50 1.08871
329.00 1.09780
329.50 1.10814
330.00 1.11909
330.50 1.12999
331.00 1.14084
331.50 1.14955
332.00 1.15637
332.50 1.16315
333.00 1.16870
333.50 1.17238
334.00 1.17603
334.50 1.17965
335.00 1.18379
335.50 1.18823
336.00 1.19096
336.50 1.19270
337.00 1.19444
337.50 1.19616
338.00 1.19788
338.50 1.19801
339.00 1.19703
339.50 1.19603
340.00 1.19511
340.50 1.19423
341.00 1.19334
341.50 1.19190
342.00 1.19036
342.50 1.18898
343.00 1.18760
343.50 1.18601
344.00 1.18437
344.50 1.18272
345.00 1.18152
345.50 1.18034
346.00 1.17915
346.50 1.17794
347.00 1.17677
347.50 1.17567
348.00 1.17454
348.50 1.17464
349.00 1.17495
349.50 1.17525
350.00 1.17477
350.50 1.17413
351.00 1.17348
351.50 1.17286
352.00 1.17331
352.50 1.17375
353.00 1.17418
353.50 1.17460
354.00 1.17502
354.50 1.17513
355.00 1.17549
355.50 1.17593
356.00 1.17637
356.50 1.17681
357.00 1.17726
357.50 1.17754
358.00 1.17770
358.50 1.17785
359.00 1.17801
359.50 1.17818
360.00 1.17835
