phi[deg] B[T]
0.00 0.97935
0.50 0.97947
1.00 0.97962
1.50 0.97979
2.00 0.98000
2.50 0.98037
3.00 0.98106
3.50 0.98178
4.00 0.98253
4.50 0.98331
5.00 0.98389
5.50 0.98482
6.00 0.98582
6.50 0.98685
7.00 0.98791
7.50 0.98912
8.00 0.99047
8.50 0.99168
9.00 0.99289
9.50 0.99417
10.00 0.99555
10.50 0.99692
11.00 0.99821
11.50 0.99953
12.00 1.00075
12.50 1.00195
13.00 1.00315
13.50 1.00425
14.00 1.00538
14.50 1.00655
15.00 1.00740
15.50 1.00782
16.00 1.00832
16.50 1.00931
17.00 1.01034
17.50 1.01139
18.00 1.01246
18.50 1.01356
19.00 1.01228
19.50 1.01071
20.00 1.00915
20.50 1.00771
21.00 1.00731
21.50 1.00692
22.00 1.00654
22.50 1.00616
23.00 1.00302
23.50 0.99930
24.00 0.99557
24.50 0.99248
25.00 0.99033
25.50 0.98817
26.00 0.98342
26.50 0.97746
27.00 0.97147
27.50 0.96546
28.00 0.95941
28.50 0.95334
29.00 0.94724
29.50 0.93826
30.00 0.92880
30.50 0.91930
31.00 0.90977
31.50 0.90020
32.00 0.89060
32.50 0.88098
33.00 0.87132
33.50 0.86145
34.00 0.84594
34.50 0.83149
35.00 0.81698
35.50 0.80241
36.00 0.78778
36.50 0.77309
37.00 0.75834
37.50 0.74353
38.00 0.72267
38.50 0.70059
39.00 0.67844
39.50 0.66006
40.00 0.64250
40.50 0.62482
41.00 0.60704
41.50 0.58701
42.00 0.56397
42.50 0.54083
43.00 0.51758
43.50 0.49422
44.00 0.47076
44.50 0.45040
45.00 0.43024
45.50 0.41154
46.00 0.39281
46.50 0.37411
47.00 0.35537
47.50 0.33658
48.00 0.31775
48.50 0.29926
49.00 0.28378
49.50 0.26827
50.00 0.25271
50.50 0.23711
51.00 0.22288
51.50 0.20923
52.00 0.19557
52.50 0.18320
53.00 0.17378
53.50 0.16434
54.00 0.15527
54.50 0.14652
55.00 0.13776
55.50 0.12899
56.00 0.12020
56.50 0.11191
57.00 0.10561
57.50 0.09932
58.00 0.09303
58.50 0.08674
59.00 0.08188
59.50 0.07784
60.00 0.07380
60.50 0.06976
61.00 0.06572
61.50 0.06168
62.00 0.05763
62.50 0.05358
63.00 0.05026
63.50 0.04722
64.00 0.04418
64.50 0.04114
65.00 0.03813
65.50 0.03626
66.00 0.03438
66.50 0.03250
67.00 0.03062
67.50 0.02874
68.00 0.02686
68.50 0.02498
69.00 0.02311
69.50 0.02195
70.00 0.02080
70.50 0.01965
71.00 0.01850
71.50 0.01735
72.00 0.01623
72.50 0.01531
73.00 0.01440
73.50 0.01349
74.00 0.01257
74.50 0.01166
75.00 0.01081
75.50 0.01037
76.00 0.00993
76.50 0.00949
77.00 0.00904
77.50 0.00860
78.00 0.00816
78.50 0.00769
79.00 0.00721
79.50 0.00673
80.00 0.00625
80.50 0.00577
81.00 0.00541
81.50 0.00523
82.00 0.00505
82.50 0.00486
83.00 0.00468
83.50 0.00450
84.00 0.00431
84.50 0.00412
85.00 0.00392
85.50 0.00372
86.00 0.00357
86.50 0.00353
87.00 0.00347
87.50 0.00340
88.00 0.00332
88.50 0.00325
89.00 0.00318
89.50 0.00311
90.00 0.00304
90.00 0.00304
90.50 0.00311
91.00 0.00318
91.50 0.00325
92.00 0.00332
92.50 0.00340
93.00 0.00347
93.50 0.00353
94.00 0.00357
94.50 0.00372
95.00 0.00392
95.50 0.00412
96.00 0.00431
96.50 0.00450
97.00 0.00468
97.50 0.00486
98.00 0.00505
98.50 0.00523
99.00 0.00541
99.50 0.00577
100.00 0.00625
100.50 0.00673
101.00 0.00721
101.50 0.00769
102.00 0.00816
102.50 0.00860
103.00 0.00904
103.50 0.00949
104.00 0.00993
104.50 0.01037
105.00 0.01081
105.50 0.01166
106.00 0.01257
106.50 0.01349
107.00 0.01440
107.50 0.01531
108.00 0.01623
108.50 0.01735
109.00 0.01850
109.50 0.01965
110.00 0.02080
110.50 0.02195
111.00 0.02311
111.50 0.02498
112.00 0.02686
112.50 0.02874
113.00 0.03062
113.50 0.03250
114.00 0.03438
114.50 0.03626
115.00 0.03813
115.50 0.04114
116.00 0.04418
116.50 0.04722
117.00 0.05026
117.50 0.05358
118.00 0.05763
118.50 0.06168
119.00 0.06572
119.50 0.06976
120.00 0.07380
120.50 0.07784
121.00 0.08188
121.50 0.08674
122.00 0.09303
122.50 0.09932
123.00 0.10561
123.50 0.11191
124.00 0.12020
124.50 0.12899
125.00 0.13776
125.50 0.14652
126.00 0.15527
126.50 0.16434
127.00 0.17378
127.50 0.18320
128.00 0.19557
128.50 0.20923
129.00 0.22288
129.50 0.23711
130.00 0.25271
130.50 0.26827
131.00 0.28378
131.50 0.29926
132.00 0.31775
132.50 0.33658
133.00 0.35537
133.50 0.37411
134.00 0.39281
134.50 0.41154
135.00 0.43024
135.50 0.45040
136.00 0.47076
136.50 0.49422
137.00 0.51758
137.50 0.54083
138.00 0.56397
138.50 0.58701
139.00 0.60704
139.50 0.62482
140.00 0.64250
140.50 0.66006
141.00 0.67844
141.50 0.70059
142.00 0.72267
142.50 0.74353
143.00 0.75834
143.50 0.77309
144.00 0.78778
144.50 0.80241
145.00 0.81698
145.50 0.83149
146.00 0.84594
146.50 0.86145
147.00 0.87132
147.50 0.88098
148.00 0.89060
148.50 0.90020
149.00 0.90977
149.50 0.91930
150.00 0.92880
150.50 0.93826
151.00 0.94724
151.50 0.95334
152.00 0.95941
152.50 0.96546
153.00 0.97147
153.50 0.97746
154.00 0.98342
154.50 0.98817
155.00 0.99033
155.50 0.99248
156.00 0.99557
156.50 0.99930
157.00 1.00302
157.50 1.00616
158.00 1.00654
158.50 1.00692
159.00 1.00731
159.50 1.00771
160.00 1.00915
160.50 1.01071
161.00 1.01228
161.50 1.01356
162.00 1.01246
162.50 1.01139
163.00 1.01034
163.50 1.00931
164.00 1.00832
164.50 1.00782
165.00 1.00740
165.50 1.00655
166.00 1.00538
166.50 1.00425
167.00 1.00315
167.50 1.00195
168.00 1.00075
168.50 0.99953
169.00 0.99821
169.50 0.99692
170.00 0.99555
170.50 0.99417
171.00 0.99289
171.50 0.99168
172.00 0.99047
172.50 0.98912
173.00 0.98791
173.50 0.98685
174.00 0.98582
174.50 0.98482
175.00 0.98389
175.50 0.98331
176.00 0.98253
176.50 0.98178
177.00 0.98106
177.50 0.98037
178.00 0.98000
178.50 0.97979
179.00 0.97962
179.50 0.97947
180.00 0.97935
180.00 0.97935
180.50 0.97947
181.00 0.97962
181.50 0.97979
182.00 0.98000
182.50 0.98037
183.00 0.98106
183.50 0.98178
184.00 0.98253
184.50 0.98331
185.00 0.98389
185.50 0.98482
186.00 0.98582
186.50 0.98685
187.00 0.98791
187.50 0.98912
188.00 0.99047
188.50 0.99168
189.00 0.99289
189.50 0.99417
190.00 0.99555
190.50 0.99692
191.00 0.99821
191.50 0.99953
192.00 1.00075
192.50 1.00195
193.00 1.00315
193.50 1.00425
194.00 1.00538
194.50 1.00655
195.00 1.00740
195.50 1.00782
196.00 1.00832
196.50 1.00931
197.00 1.01034
197.50 1.01139
198.00 1.01246
198.50 1.01356
199.00 1.01228
199.50 1.01071
200.00 1.00915
200.50 1.00771
201.00 1.00731
201.50 1.00692
202.00 1.00654
202.50 1.00616
203.00 1.00302
203.50 0.99930
204.00 0.99557
204.50 0.99248
205.00 0.99033
205.50 0.98817
206.00 0.98342
206.50 0.97746
207.00 0.97147
207.50 0.96546
208.00 0.95941
208.50 0.95334
209.00 0.94724
209.50 0.93826
210.00 0.92880
210.50 0.91930
211.00 0.90977
211.50 0.90020
212.00 0.89060
212.50 0.88098
213.00 0.87132
213.50 0.86145
214.00 0.84594
214.50 0.83149
215.00 0.81698
215.50 0.80241
216.00 0.78778
216.50 0.77309
217.00 0.75834
217.50 0.74353
218.00 0.72267
218.50 0.70059
219.00 0.67844
219.50 0.66006
220.00 0.64250
220.50 0.62482
221.00 0.60704
221.50 0.58701
222.00 0.56397
222.50 0.54083
223.00 0.51758
223.50 0.49422
224.00 0.47076
224.50 0.45040
225.00 0.43024
225.50 0.41154
226.00 0.39281
226.50 0.37411
227.00 0.35537
227.50 0.33658
228.00 0.31775
228.50 0.29926
229.00 0.28378
229.50 0.26827
230.00 0.25271
230.50 0.23711
231.00 0.22288
231.50 0.20923
232.00 0.19557
232.50 0.18320
233.00 0.17378
233.50 0.16434
234.00 0.15527
234.50 0.14652
235.00 0.13776
235.50 0.12899
236.00 0.12020
236.50 0.11191
237.00 0.10561
237.50 0.09932
238.00 0.09303
238.50 0.08674
239.00 0.08188
239.50 0.07784
240.00 0.07380
240.50 0.06976
241.00 0.06572
241.50 0.06168
242.00 0.05763
242.50 0.05358
243.00 0.05026
243.50 0.04722
244.00 0.04418
244.50 0.04114
245.00 0.03813
245.50 0.03626
246.00 0.03438
246.50 0.03250
247.00 0.03062
247.50 0.02874
248.00 0.02686
248.50 0.02498
249.00 0.02311
249.50 0.02195
250.00 0.02080
250.50 0.01965
251.00 0.01850
251.50 0.01735
252.00 0.01623
252.50 0.01531
253.00 0.01440
253.50 0.01349
254.00 0.01257
254.50 0.01166
255.00 0.01081
255.50 0.01037
256.00 0.00993
256.50 0.00949
257.00 0.00904
257.50 0.00860
258.00 0.00816
258.50 0.00769
259.00 0.00721
259.50 0.00673
260.00 0.00625
260.50 0.00577
261.00 0.00541
261.50 0.00523
262.00 0.00505
262.50 0.00486
263.00 0.00468
263.50 0.00450
264.00 0.00431
264.50 0.00412
265.00 0.00392
265.50 0.00372
266.00 0.00357
266.50 0.00353
267.00 0.00347
267.50 0.00340
268.00 0.00332
268.50 0.00325
269.00 0.00318
269.50 0.00311
270.00 0.00304
270.00 0.00304
270.50 0.00311
271.00 0.00318
271.50 0.00325
272.00 0.00332
272.50 0.00340
273.00 0.00347
273.50 0.00353
274.00 0.00357
274.50 0.00372
275.00 0.00392
275.50 0.00412
276.00 0.00431
276.50 0.00450
277.00 0.00468
277.50 0.00486
278.00 0.00505
278.50 0.00523
279.00 0.00541
279.50 0.00577
280.00 0.00625
280.50 0.00673
281.00 0.00721
281.50 0.00769
282.00 0.00816
282.50 0.00860
283.00 0.00904
283.50 0.00949
284.00 0.00993
284.50 0.01037
285.00 0.01081
285.50 0.01166
286.00 0.01257
286.50 0.01349
287.00 0.01440
287.50 0.01531
288.00 0.01623
288.50 0.01735
289.00 0.01850
289.50 0.01965
290.00 0.02080
290.50 0.02195
291.00 0.02311
291.50 0.02498
292.00 0.02686
292.50 0.02874
293.00 0.03062
293.50 0.03250
294.00 0.03438
294.50 0.03626
295.00 0.03813
295.50 0.04114
296.00 0.04418
296.50 0.04722
297.00 0.05026
297.50 0.05358
298.00 0.05763
298.50 0.06168
299.00 0.06572
299.50 0.06976
300.00 0.07380
300.50 0.07784
301.00 0.08188
301.50 0.08674
302.00 0.09303
302.50 0.09932
303.00 0.10561
303.50 0.11191
304.00 0.12020
304.50 0.12899
305.00 0.13776
305.50 0.14652
306.00 0.15527
306.50 0.16434
307.00 0.17378
307.50 0.18320
308.00 0.19557
308.50 0.20923
309.00 0.22288
309.50 0.23711
310.00 0.25271
310.50 0.26827
311.00 0.28378
311.50 0.29926
312.00 0.31775
312.50 0.33658
313.00 0.35537
313.50 0.37411
314.00 0.39281
314.50 0.41154
315.00 0.43024
315.50 0.45040
316.00 0.47076
316.50 0.49422
317.00 0.51758
317.50 0.54083
318.00 0.56397
318.50 0.58701
319.00 0.60704
319.50 0.62482
320.00 0.64250
320.50 0.66006
321.00 0.67844
321.50 0.70059
322.00 0.72267
322.50 0.74353
323.00 0.75834
323.50 0.77309
324.00 0.78778
324.50 0.80241
325.00 0.81698
325.50 0.83149
326.00 0.84594
326.50 0.86145
327.00 0.87132
327.50 0.88098
328.00 0.89060
328.50 0.90020
329.00 0.90977
329.50 0.91930
330.00 0.92880
330.50 0.93826
331.00 0.94724
331.50 0.95334
332.00 0.95941
332.50 0.96546
333.00 0.97147
333.50 0.97746
334.00 0.98342
334.50 0.98817
335.00 0.99033
335.50 0.99248
336.00 0.99557
336.50 0.99930
337.00 1.00302
337.50 1.00616
338.00 1.00654
338.50 1.00692
339.00 1.00731
339.50 1.00771
340.00 1.00915
340.50 1.01071
341.00 1.01228
341.50 1.01356
342.00 1.01246
342.50 1.01139
343.00 1.01034
343.50 1.00931
344.00 1.00832
344.50 1.00782
345.00 1.00740
345.50 1.00655
346.00 1.00538
346.50 1.00425
347.00 1.00315
347.50 1.00195
348.00 1.00075
348.50 0.99953
349.00 0.99821
349.50 0.99692
350.00 0.99555
350.50 0.99417
351.00 0.99289
351.50 0.99168
352.00 0.99047
352.50 0.98912
353.00 0.98791
353.50 0.98685
354.00 0.98582
354.50 0.98482
355.00 0.98389
355.50 0.98331
356.00 0.98253
356.50 0.98178
357.00 0.98106
357.50 0.98037
358.00 0.98000
358.50 0.97979
359.00 0.97962
359.50 0.97947
360.00 0.97935
