phi[deg] B[T]
0.00 1.32134
0.50 1.32106
1.00 1.32087
1.50 1.32080
2.00 1.32102
2.50 1.32148
3.00 1.32196
3.50 1.32237
4.00 1.32264
4.50 1.32300
5.00 1.32346
5.50 1.32401
6.00 1.32465
6.50 1.32565
7.00 1.32674
7.50 1.32793
8.00 1.32811
8.50 1.32817
9.00 1.32833
9.50 1.32856
10.00 1.32888
10.50 1.32928
11.00 1.33029
11.50 1.33178
12.00 1.33334
12.50 1.33432
13.00 1.33526
13.50 1.33628
14.00 1.33626
14.50 1.33556
15.00 1.33492
15.50 1.33434
16.00 1.33394
16.50 1.33515
17.00 1.33640
17.50 1.33771
18.00 1.33906
18.50 1.33800
19.00 1.33378
19.50 1.32960
20.00 1.32543
20.50 1.32130
21.00 1.31719
21.50 1.31437
22.00 1.31417
22.50 1.31396
23.00 1.31374
23.50 1.30941
24.00 1.30280
24.50 1.29619
25.00 1.28892
25.50 1.27873
26.00 1.26850
26.50 1.25824
27.00 1.24795
27.50 1.23762
28.00 1.22727
28.50 1.21730
29.00 1.20738
29.50 1.19743
30.00 1.18584
30.50 1.17308
31.00 1.16030
31.50 1.14724
32.00 1.13119
32.50 1.11509
33.00 1.09894
33.50 1.08274
34.00 1.06649
34.50 1.05011
35.00 1.03365
35.50 1.01714
36.00 0.99984
36.50 0.98002
37.00 0.96014
37.50 0.94022
38.00 0.92025
38.50 0.90043
39.00 0.87966
39.50 0.85892
40.00 0.83827
40.50 0.81760
41.00 0.79655
41.50 0.77522
42.00 0.75396
42.50 0.73265
43.00 0.71131
43.50 0.68942
44.00 0.66749
44.50 0.64559
45.00 0.62402
45.50 0.60278
46.00 0.58218
46.50 0.56189
47.00 0.54158
47.50 0.52241
48.00 0.50394
48.50 0.48545
49.00 0.46694
49.50 0.44842
50.00 0.43308
50.50 0.41828
51.00 0.40346
51.50 0.38863
52.00 0.37378
52.50 0.35892
53.00 0.34490
53.50 0.33257
54.00 0.32098
54.50 0.30936
55.00 0.29771
55.50 0.28604
56.00 0.27516
56.50 0.26503
57.00 0.25487
57.50 0.24469
58.00 0.23419
58.50 0.22351
59.00 0.21280
59.50 0.20206
60.00 0.19130
60.50 0.18097
61.00 0.17097
61.50 0.16095
62.00 0.15106
62.50 0.14167
63.00 0.13225
63.50 0.12317
64.00 0.11631
64.50 0.10944
65.00 0.10257
65.50 0.09570
66.00 0.08883
66.50 0.08195
67.00 0.07595
67.50 0.07065
68.00 0.06533
68.50 0.06001
69.00 0.05483
69.50 0.05163
70.00 0.04843
70.50 0.04523
71.00 0.04204
71.50 0.03885
72.00 0.03604
72.50 0.03328
73.00 0.03051
73.50 0.02775
74.00 0.02595
74.50 0.02458
75.00 0.02321
75.50 0.02184
76.00 0.02047
76.50 0.01908
77.00 0.01760
77.50 0.01613
78.00 0.01465
78.50 0.01336
79.00 0.01269
79.50 0.01202
80.00 0.01135
80.50 0.01069
81.00 0.01002
81.50 0.00935
82.00 0.00868
82.50 0.00802
83.00 0.00756
83.50 0.00726
84.00 0.00697
84.50 0.00667
85.00 0.00638
85.50 0.00608
86.00 0.00579
86.50 0.00550
87.00 0.00534
87.50 0.00522
88.00 0.00511
88.50 0.00500
89.00 0.00489
89.50 0.00478
90.00 0.00467
90.00 0.00467
90.50 0.00478
91.00 0.00489
91.50 0.00500
92.00 0.00511
92.50 0.00522
93.00 0.00534
93.50 0.00550
94.00 0.00579
94.50 0.00608
95.00 0.00638
95.50 0.00667
96.00 0.00697
96.50 0.00726
97.00 0.00756
97.50 0.00802
98.00 0.00868
98.50 0.00935
99.00 0.01002
99.50 0.01069
100.00 0.01135
100.50 0.01202
101.00 0.01269
101.50 0.01336
102.00 0.01465
102.50 0.01613
103.00 0.01760
103.50 0.01908
104.00 0.02047
104.50 0.02184
105.00 0.02321
105.50 0.02458
106.00 0.02595
106.50 0.02775
107.00 0.03051
107.50 0.03328
108.00 0.03604
108.50 0.03885
109.00 0.04204
109.50 0.04523
110.00 0.04843
110.50 0.05163
111.00 0.05483
111.50 0.06001
112.00 0.06533
112.50 0.07065
113.00 0.07595
113.50 0.08195
114.00 0.08883
114.50 0.09570
115.00 0.10257
115.50 0.10944
116.00 0.11631
116.50 0.12317
117.00 0.13225
117.50 0.14167
118.00 0.15106
118.50 0.16095
119.00 0.17097
119.50 0.18097
120.00 0.19130
120.50 0.20206
121.00 0.21280
121.50 0.22351
122.00 0.23419
122.50 0.24469
123.00 0.25487
123.50 0.26503
124.00 0.27516
124.50 0.28604
125.00 0.29771
125.50 0.30936
126.00 0.32098
126.50 0.33257
127.00 0.34490
127.50 0.35892
128.00 0.37378
128.50 0.38863
129.00 0.40346
129.50 0.41828
130.00 0.43308
130.50 0.44842
131.00 0.46694
131.50 0.48545
132.00 0.50394
132.50 0.52241
133.00 0.54158
133.50 0.56189
134.00 0.58218
134.50 0.60278
135.00 0.62402
135.50 0.64559
136.00 0.66749
136.50 0.68942
137.00 0.71131
137.50 0.73265
138.00 0.75396
138.50 0.77522
139.00 0.79655
139.50 0.81760
140.00 0.83827
140.50 0.85892
141.00 0.87966
141.50 0.90043
142.00 0.92025
142.50 0.94022
143.00 0.96014
143.50 0.98002
144.00 0.99984
144.50 1.01714
145.00 1.03365
145.50 1.05011
146.00 1.06649
146.50 1.08274
147.00 1.09894
147.50 1.11509
148.00 1.13119
148.50 1.14724
149.00 1.16030
149.50 1.17308
150.00 1.18584
150.50 1.19743
151.00 1.20738
151.50 1.21730
152.00 1.22727
152.50 1.23762
153.00 1.24795
153.50 1.25824
154.00 1.26850
154.50 1.27873
155.00 1.28892
155.50 1.29619
156.00 1.30280
156.50 1.30941
157.00 1.31374
157.50 1.31396
158.00 1.31417
158.50 1.31437
159.00 1.31719
159.50 1.32130
160.00 1.32543
160.50 1.32960
161.00 1.33378
161.50 1.33800
162.00 1.33906
162.50 1.33771
163.00 1.33640
163.50 1.33515
164.00 1.33394
164.50 1.33434
165.00 1.33492
165.50 1.33556
166.00 1.33626
166.50 1.33628
167.00 1.33526
167.50 1.33432
168.00 1.33334
168.50 1.33178
169.00 1.33029
169.50 1.32928
170.00 1.32888
170.50 1.32856
171.00 1.32833
171.50 1.32817
172.00 1.32811
172.50 1.32793
173.00 1.32674
173.50 1.32565
174.00 1.32465
174.50 1.32401
175.00 1.32346
175.50 1.32300
176.00 1.32264
176.50 1.32237
177.00 1.32196
177.50 1.32148
178.00 1.32102
178.50 1.32080
179.00 1.32087
179.50 1.32106
180.00 1.32134
180.00 1.32134
180.50 1.32106
181.00 1.32087
181.50 1.32080
182.00 1.32102
182.50 1.32148
183.00 1.32196
183.50 1.32237
184.00 1.32264
184.50 1.32300
185.00 1.32346
185.50 1.32401
186.00 1.32465
186.50 1.32565
187.00 1.32674
187.50 1.32793
188.00 1.32811
188.50 1.32817
189.00 1.32833
189.50 1.32856
190.00 1.32888
190.50 1.32928
191.00 1.33029
191.50 1.33178
192.00 1.33334
192.50 1.33432
193.00 1.33526
193.50 1.33628
194.00 1.33626
194.50 1.33556
195.00 1.33492
195.50 1.33434
196.00 1.33394
196.50 1.33515
197.00 1.33640
197.50 1.33771
198.00 1.33906
198.50 1.33800
199.00 1.33378
199.50 1.32960
200.00 1.32543
200.50 1.32130
201.00 1.31719
201.50 1.31437
202.00 1.31417
202.50 1.31396
203.00 1.31374
203.50 1.30941
204.00 1.30280
204.50 1.29619
205.00 1.28892
205.50 1.27873
206.00 1.26850
206.50 1.25824
207.00 1.24795
207.50 1.23762
208.00 1.22727
208.50 1.21730
209.00 1.20738
209.50 1.19743
210.00 1.18584
210.50 1.17308
211.00 1.16030
211.50 1.14724
212.00 1.13119
212.50 1.11509
213.00 1.09894
213.50 1.08274
214.00 1.06649
214.50 1.05011
215.00 1.03365
215.50 1.01714
216.00 0.99984
216.50 0.98002
217.00 0.96014
217.50 0.94022
218.00 0.92025
218.50 0.90043
219.00 0.87966
219.50 0.85892
220.00 0.83827
220.50 0.81760
221.00 0.79655
221.50 0.77522
222.00 0.75396
222.50 0.73265
223.00 0.71131
223.50 0.68942
224.00 0.66749
224.50 0.64559
225.00 0.62402
225.50 0.60278
226.00 0.58218
226.50 0.56189
227.00 0.54158
227.50 0.52241
228.00 0.50394
228.50 0.48545
229.00 0.46694
229.50 0.44842
230.00 0.43308
230.50 0.41828
231.00 0.40346
231.50 0.38863
232.00 0.37378
232.50 0.35892
233.00 0.34490
233.50 0.33257
234.00 0.32098
234.50 0.30936
235.00 0.29771
235.50 0.28604
236.00 0.27516
236.50 0.26503
237.00 0.25487
237.50 0.24469
238.00 0.23419
238.50 0.22351
239.00 0.21280
239.50 0.20206
240.00 0.19130
240.50 0.18097
241.00 0.17097
241.50 0.16095
242.00 0.15106
242.50 0.14167
243.00 0.13225
243.50 0.12317
244.00 0.11631
244.50 0.10944
245.00 0.10257
245.50 0.09570
246.00 0.08883
246.50 0.08195
247.00 0.07595
247.50 0.07065
248.00 0.06533
248.50 0.06001
249.00 0.05483
249.50 0.05163
250.00 0.04843
250.50 0.04523
251.00 0.04204
251.50 0.03885
252.00 0.03604
252.50 0.03328
253.00 0.03051
253.50 0.02775
254.00 0.02595
254.50 0.02458
255.00 0.02321
255.50 0.02184
256.00 0.02047
256.50 0.01908
257.00 0.01760
257.50 0.01613
258.00 0.01465
258.50 0.01336
259.00 0.01269
259.50 0.01202
260.00 0.01135
260.50 0.01069
261.00 0.01002
261.50 0.00935
262.00 0.00868
262.50 0.00802
263.00 0.00756
263.50 0.00726
264.00 0.00697
264.50 0.00667
265.00 0.00638
265.50 0.00608
266.00 0.00579
266.50 0.00550
267.00 0.00534
267.50 0.00522
268.00 0.00511
268.50 0.00500
269.00 0.00489
269.50 0.00478
270.00 0.00467
270.00 0.00467
270.50 0.00478
271.00 0.00489
271.50 0.00500
272.00 0.00511
272.50 0.00522
273.00 0.00534
273.50 0.00550
274.00 0.00579
274.50 0.00608
275.00 0.00638
275.50 0.00667
276.00 0.00697
276.50 0.00726
277.00 0.00756
277.50 0.00802
278.00 0.00868
278.50 0.00935
279.00 0.01002
279.50 0.01069
280.00 0.01135
280.50 0.01202
281.00 0.01269
281.50 0.01336
282.00 0.01465
282.50 0.01613
283.00 0.01760
283.50 0.01908
284.00 0.02047
284.50 0.02184
285.00 0.02321
285.50 0.02458
286.00 0.02595
286.50 0.02775
287.00 0.03051
287.50 0.03328
288.00 0.03604
288.50 0.03885
289.00 0.04204
289.50 0.04523
290.00 0.04843
290.50 0.05163
291.00 0.05483
291.50 0.06001
292.00 0.06533
292.50 0.07065
293.00 0.07595
293.50 0.08195
294.00 0.08883
294.50 0.09570
295.00 0.10257
295.50 0.10944
296.00 0.11631
296.50 0.12317
297.00 0.13225
297.50 0.14167
298.00 0.15106
298.50 0.16095
299.00 0.17097
299.50 0.18097
300.00 0.19130
300.50 0.20206
301.00 0.21280
301.50 0.22351
302.00 0.23419
302.50 0.24469
303.00 0.25487
303.50 0.26503
304.00 0.27516
304.50 0.28604
305.00 0.29771
305.50 0.30936
306.00 0.32098
306.50 0.33257
307.00 0.34490
307.50 0.35892
308.00 0.37378
308.50 0.38863
309.00 0.40346
309.50 0.41828
310.00 0.43308
310.50 0.44842
311.00 0.46694
311.50 0.48545
312.00 0.50394
312.50 0.52241
313.00 0.54158
313.50 0.56189
314.00 0.58218
314.50 0.60278
315.00 0.62402
315.50 0.64559
316.00 0.66749
316.50 0.68942
317.00 0.71131
317.50 0.73265
318.00 0.75396
318.50 0.77522
319.00 0.79655
319.50 0.81760
320.00 0.83827
320.50 0.85892
321.00 0.87966
321.50 0.90043
322.00 0.92025
322.50 0.94022
323.00 0.96014
323.50 0.98002
324.00 0.99984
324.50 1.01714
325.00 1.03365
325.50 1.05011
326.00 1.06649
326.50 1.08274
327.00 1.09894
327.50 1.11509
328.00 1.13119
328.50 1.14724
329.00 1.16030
329.50 1.17308
330.00 1.18584
330.50 1.19743
331.00 1.20738
331.50 1.21730
332.00 1.22727
332.50 1.23762
333.00 1.24795
333.50 1.25824
334.00 1.26850
334.50 1.27873
335.00 1.28892
335.50 1.29619
336.00 1.30280
336.50 1.30941
337.00 1.31374
337.50 1.31396
338.00 1.31417
338.50 1.31437
339.00 1.31719
339.50 1.32130
340.00 1.32543
340.50 1.32960
341.00 1.33378
341.50 1.33800
342.00 1.33906
342.50 1.33771
343.00 1.33640
343.50 1.33515
344.00 1.33394
344.50 1.33434
345.00 1.33492
345.50 1.33556
346.00 1.33626
346.50 1.33628
347.00 1.33526
347.50 1.33432
348.00 1.33334
348.50 1.33178
349.00 1.33029
349.50 1.32928
350.00 1.32888
350.50 1.32856
351.00 1.32833
351.50 1.32817
352.00 1.32811
352.50 1.32793
353.00 1.32674
353.50 1.32565
354.00 1.32465
354.50 1.32401
355.00 1.32346
355.50 1.32300
356.00 1.32264
356.50 1.32237
357.00 1.32196
357.50 1.32148
358.00 1.32102
358.50 1.32080
359.00 1.32087
359.50 1.32106
360.00 1.32134
