phi[deg] B[T]
0.00 1.00520
0.50 1.00516
1.00 1.00523
1.50 1.00539
2.00 1.00561
2.50 1.00591
3.00 1.00627
3.50 1.00652
4.00 1.00682
4.50 1.00719
5.00 1.00762
5.50 1.00813
6.00 1.00847
6.50 1.00925
7.00 1.01008
7.50 1.01098
8.00 1.01195
8.50 1.01297
9.00 1.01333
9.50 1.01320
10.00 1.01313
10.50 1.01349
11.00 1.01473
11.50 1.01602
12.00 1.01736
12.50 1.01875
13.00 1.02020
13.50 1.02021
14.00 1.01968
14.50 1.01920
15.00 1.01876
15.50 1.01858
16.00 1.02003
16.50 1.02150
17.00 1.02303
17.50 1.02473
18.00 1.02563
18.50 1.02430
19.00 1.02297
19.50 1.02164
20.00 1.02030
20.50 1.01895
21.00 1.01798
21.50 1.01780
22.00 1.01761
22.50 1.01741
23.00 1.01721
23.50 1.01415
24.00 1.00792
24.50 1.00165
25.00 0.99536
25.50 0.98912
26.00 0.98584
26.50 0.98252
27.00 0.97915
27.50 0.97574
28.00 0.97228
28.50 0.96548
29.00 0.95529
29.50 0.94503
30.00 0.93469
30.50 0.92429
31.00 0.91489
31.50 0.90572
32.00 0.89648
32.50 0.88716
33.00 0.87777
33.50 0.86631
34.00 0.85107
34.50 0.83574
35.00 0.82105
35.50 0.80727
36.00 0.79339
36.50 0.77940
37.00 0.76531
37.50 0.75112
38.00 0.73495
38.50 0.71575
39.00 0.69644
39.50 0.67702
40.00 0.65749
40.50 0.63785
41.00 0.62101
41.50 0.60265
42.00 0.57961
42.50 0.55835
43.00 0.53930
43.50 0.52018
44.00 0.50097
44.50 0.48169
45.00 0.46234
45.50 0.44342
46.00 0.42442
46.50 0.40536
47.00 0.38623
47.50 0.36703
48.00 0.34693
48.50 0.32655
49.00 0.30820
49.50 0.29209
50.00 0.27593
50.50 0.26144
51.00 0.24748
51.50 0.23351
52.00 0.21953
52.50 0.20554
53.00 0.19234
53.50 0.18388
54.00 0.17541
54.50 0.16694
55.00 0.15846
55.50 0.14997
56.00 0.14143
56.50 0.13251
57.00 0.12360
57.50 0.11468
58.00 0.10578
58.50 0.09698
59.00 0.09234
59.50 0.08770
60.00 0.08305
60.50 0.07841
61.00 0.07444
61.50 0.07050
62.00 0.06658
62.50 0.06265
63.00 0.05874
63.50 0.05483
64.00 0.05093
64.50 0.04704
65.00 0.04319
65.50 0.04104
66.00 0.03889
66.50 0.03674
67.00 0.03458
67.50 0.03242
68.00 0.03027
68.50 0.02828
69.00 0.02689
69.50 0.02552
70.00 0.02414
70.50 0.02277
71.00 0.02140
71.50 0.02003
72.00 0.01867
72.50 0.01741
73.00 0.01638
73.50 0.01535
74.00 0.01431
74.50 0.01328
75.00 0.01236
75.50 0.01186
76.00 0.01136
76.50 0.01085
77.00 0.01035
77.50 0.00985
78.00 0.00933
78.50 0.00879
79.00 0.00825
79.50 0.00772
80.00 0.00718
80.50 0.00665
81.00 0.00619
81.50 0.00598
82.00 0.00577
82.50 0.00556
83.00 0.00535
83.50 0.00515
84.00 0.00494
84.50 0.00473
85.00 0.00451
85.50 0.00428
86.00 0.00418
86.50 0.00410
87.00 0.00401
87.50 0.00393
88.00 0.00384
88.50 0.00375
89.00 0.00367
89.50 0.00358
90.00 0.00350
90.00 0.00350
90.50 0.00358
91.00 0.00367
91.50 0.00375
92.00 0.00384
92.50 0.00393
93.00 0.00401
93.50 0.00410
94.00 0.00418
94.50 0.00428
95.00 0.00451
95.50 0.00473
96.00 0.00494
96.50 0.00515
97.00 0.00535
97.50 0.00556
98.00 0.00577
98.50 0.00598
99.00 0.00619
99.50 0.00665
100.00 0.00718
100.50 0.00772
101.00 0.00825
101.50 0.00879
102.00 0.00933
102.50 0.00985
103.00 0.01035
103.50 0.01085
104.00 0.01136
104.50 0.01186
105.00 0.01236
105.50 0.01328
106.00 0.01431
106.50 0.01535
107.00 0.01638
107.50 0.01741
108.00 0.01867
108.50 0.02003
109.00 0.02140
109.50 0.02277
110.00 0.02414
110.50 0.02552
111.00 0.02689
111.50 0.02828
112.00 0.03027
112.50 0.03242
113.00 0.03458
113.50 0.03674
114.00 0.03889
114.50 0.04104
115.00 0.04319
115.50 0.04704
116.00 0.05093
116.50 0.05483
117.00 0.05874
117.50 0.06265
118.00 0.06658
118.50 0.07050
119.00 0.07444
119.50 0.07841
120.00 0.08305
120.50 0.08770
121.00 0.09234
121.50 0.09698
122.00 0.10578
122.50 0.11468
123.00 0.12360
123.50 0.13251
124.00 0.14143
124.50 0.14997
125.00 0.15846
125.50 0.16694
126.00 0.17541
126.50 0.18388
127.00 0.19234
127.50 0.20554
128.00 0.21953
128.50 0.23351
129.00 0.24748
129.50 0.26144
130.00 0.27593
130.50 0.29209
131.00 0.30820
131.50 0.32655
132.00 0.34693
132.50 0.36703
133.00 0.38623
133.50 0.40536
134.00 0.42442
134.50 0.44342
135.00 0.46234
135.50 0.48169
136.00 0.50097
136.50 0.52018
137.00 0.53930
137.50 0.55835
138.00 0.57961
138.50 0.60265
139.00 0.62101
139.50 0.63785
140.00 0.65749
140.50 0.67702
141.00 0.69644
141.50 0.71575
142.00 0.73495
142.50 0.75112
143.00 0.76531
143.50 0.77940
144.00 0.79339
144.50 0.80727
145.00 0.82105
145.50 0.83574
146.00 0.85107
146.50 0.86631
147.00 0.87777
147.50 0.88716
148.00 0.89648
148.50 0.90572
149.00 0.91489
149.50 0.92429
150.00 0.93469
150.50 0.94503
151.00 0.95529
151.50 0.96548
152.00 0.97228
152.50 0.97574
153.00 0.97915
153.50 0.98252
154.00 0.98584
154.50 0.98912
155.00 0.99536
155.50 1.00165
156.00 1.00792
156.50 1.01415
157.00 1.01721
157.50 1.01741
158.00 1.01761
158.50 1.01780
159.00 1.01798
159.50 1.01895
160.00 1.02030
160.50 1.02164
161.00 1.02297
161.50 1.02430
162.00 1.02563
162.50 1.02473
163.00 1.02303
163.50 1.02150
164.00 1.02003
164.50 1.01858
165.00 1.01876
165.50 1.01920
166.00 1.01968
166.50 1.02021
167.00 1.02020
167.50 1.01875
168.00 1.01736
168.50 1.01602
169.00 1.01473
169.50 1.01349
170.00 1.01313
170.50 1.01320
171.00 1.01333
171.50 1.01297
172.00 1.01195
172.50 1.01098
173.00 1.01008
173.50 1.00925
174.00 1.00847
174.50 1.00813
175.00 1.00762
175.50 1.00719
176.00 1.00682
176.50 1.00652
177.00 1.00627
177.50 1.00591
178.00 1.00561
178.50 1.00539
179.00 1.00523
179.50 1.00516
180.00 1.00520
180.00 1.00520
180.50 1.00516
181.00 1.00523
181.50 1.00539
182.00 1.00561
182.50 1.00591
183.00 1.00627
183.50 1.00652
184.00 1.00682
184.50 1.00719
185.00 1.00762
185.50 1.00813
186.00 1.00847
186.50 1.00925
187.00 1.01008
187.50 1.01098
188.00 1.01195
188.50 1.01297
189.00 1.01333
189.50 1.01320
190.00 1.01313
190.50 1.01349
191.00 1.01473
191.50 1.01602
192.00 1.01736
192.50 1.01875
193.00 1.02020
193.50 1.02021
194.00 1.01968
194.50 1.01920
195.00 1.01876
195.50 1.01858
196.00 1.02003
196.50 1.02150
197.00 1.02303
197.50 1.02473
198.00 1.02563
198.50 1.02430
199.00 1.02297
199.50 1.02164
200.00 1.02030
200.50 1.01895
201.00 1.01798
201.50 1.01780
202.00 1.01761
202.50 1.01741
203.00 1.01721
203.50 1.01415
204.00 1.00792
204.50 1.00165
205.00 0.99536
205.50 0.98912
206.00 0.98584
206.50 0.98252
207.00 0.97915
207.50 0.97574
208.00 0.97228
208.50 0.96548
209.00 0.95529
209.50 0.94503
210.00 0.93469
210.50 0.92429
211.00 0.91489
211.50 0.90572
212.00 0.89648
212.50 0.88716
213.00 0.87777
213.50 0.86631
214.00 0.85107
214.50 0.83574
215.00 0.82105
215.50 0.80727
216.00 0.79339
216.50 0.77940
217.00 0.76531
217.50 0.75112
218.00 0.73495
218.50 0.71575
219.00 0.69644
219.50 0.67702
220.00 0.65749
220.50 0.63785
221.00 0.62101
221.50 0.60265
222.00 0.57961
222.50 0.55835
223.00 0.53930
223.50 0.52018
224.00 0.50097
224.50 0.48169
225.00 0.46234
225.50 0.44342
226.00 0.42442
226.50 0.40536
227.00 0.38623
227.50 0.36703
228.00 0.34693
228.50 0.32655
229.00 0.30820
229.50 0.29209
230.00 0.27593
230.50 0.26144
231.00 0.24748
231.50 0.23351
232.00 0.21953
232.50 0.20554
233.00 0.19234
233.50 0.18388
234.00 0.17541
234.50 0.16694
235.00 0.15846
235.50 0.14997
236.00 0.14143
236.50 0.13251
237.00 0.12360
237.50 0.11468
238.00 0.10578
238.50 0.09698
239.00 0.09234
239.50 0.08770
240.00 0.08305
240.50 0.07841
241.00 0.07444
241.50 0.07050
242.00 0.06658
242.50 0.06265
243.00 0.05874
243.50 0.05483
244.00 0.05093
244.50 0.04704
245.00 0.04319
245.50 0.04104
246.00 0.03889
246.50 0.03674
247.00 0.03458
247.50 0.03242
248.00 0.03027
248.50 0.02828
249.00 0.02689
249.50 0.02552
250.00 0.02414
250.50 0.02277
251.00 0.02140
251.50 0.02003
252.00 0.01867
252.50 0.01741
253.00 0.01638
253.50 0.01535
254.00 0.01431
254.50 0.01328
255.00 0.01236
255.50 0.01186
256.00 0.01136
256.50 0.01085
257.00 0.01035
257.50 0.00985
258.00 0.00933
258.50 0.00879
259.00 0.00825
259.50 0.00772
260.00 0.00718
260.50 0.00665
261.00 0.00619
261.50 0.00598
262.00 0.00577
262.50 0.00556
263.00 0.00535
263.50 0.00515
264.00 0.00494
264.50 0.00473
265.00 0.00451
265.50 0.00428
266.00 0.00418
266.50 0.00410
267.00 0.00401
267.50 0.00393
268.00 0.00384
268.50 0.00375
269.00 0.00367
269.50 0.00358
270.00 0.00350
270.00 0.00350
270.50 0.00358
271.00 0.00367
271.50 0.00375
272.00 0.00384
272.50 0.00393
273.00 0.00401
273.50 0.00410
274.00 0.00418
274.50 0.00428
275.00 0.00451
275.50 0.00473
276.00 0.00494
276.50 0.00515
277.00 0.00535
277.50 0.00556
278.00 0.00577
278.50 0.00598
279.00 0.00619
279.50 0.00665
280.00 0.00718
280.50 0.00772
281.00 0.00825
281.50 0.00879
282.00 0.00933
282.50 0.00985
283.00 0.01035
283.50 0.01085
284.00 0.01136
284.50 0.01186
285.00 0.01236
285.50 0.01328
286.00 0.01431
286.50 0.01535
287.00 0.01638
287.50 0.01741
288.00 0.01867
288.50 0.02003
289.00 0.02140
289.50 0.02277
290.00 0.02414
290.50 0.02552
291.00 0.02689
291.50 0.02828
292.00 0.03027
292.50 0.03242
293.00 0.03458
293.50 0.03674
294.00 0.03889
294.50 0.04104
295.00 0.04319
295.50 0.04704
296.00 0.05093
296.50 0.05483
297.00 0.05874
297.50 0.06265
298.00 0.06658
298.50 0.07050
299.00 0.07444
299.50 0.07841
300.00 0.08305
300.50 0.08770
301.00 0.09234
301.50 0.09698
302.00 0.10578
302.50 0.11468
303.00 0.12360
303.50 0.13251
304.00 0.14143
304.50 0.14997
305.00 0.15846
305.50 0.16694
306.00 0.17541
306.50 0.18388
307.00 0.19234
307.50 0.20554
308.00 0.21953
308.50 0.23351
309.00 0.24748
309.50 0.26144
310.00 0.27593
310.50 0.29209
311.00 0.30820
311.50 0.32655
312.00 0.34693
312.50 0.36703
313.00 0.38623
313.50 0.40536
314.00 0.42442
314.50 0.44342
315.00 0.46234
315.50 0.48169
316.00 0.50097
316.50 0.52018
317.00 0.53930
317.50 0.55835
318.00 0.57961
318.50 0.60265
319.00 0.62101
319.50 0.63785
320.00 0.65749
320.50 0.67702
321.00 0.69644
321.50 0.71575
322.00 0.73495
322.50 0.75112
323.00 0.76531
323.50 0.77940
324.00 0.79339
324.50 0.80727
325.00 0.82105
325.50 0.83574
326.00 0.85107
326.50 0.86631
327.00 0.87777
327.50 0.88716
328.00 0.89648
328.50 0.90572
329.00 0.91489
329.50 0.92429
330.00 0.93469
330.50 0.94503
331.00 0.95529
331.50 0.96548
332.00 0.97228
332.50 0.97574
333.00 0.97915
333.50 0.98252
334.00 0.98584
334.50 0.98912
335.00 0.99536
335.50 1.00165
336.00 1.00792
336.50 1.01415
337.00 1.01721
337.50 1.01741
338.00 1.01761
338.50 1.01780
339.00 1.01798
339.50 1.01895
340.00 1.02030
340.50 1.02164
341.00 1.02297
341.50 1.02430
342.00 1.02563
342.50 1.02473
343.00 1.02303
343.50 1.02150
344.00 1.02003
344.50 1.01858
345.00 1.01876
345.50 1.01920
346.00 1.01968
346.50 1.02021
347.00 1.02020
347.50 1.01875
348.00 1.01736
348.50 1.01602
349.00 1.01473
349.50 1.01349
350.00 1.01313
350.50 1.01320
351.00 1.01333
351.50 1.01297
352.00 1.01195
352.50 1.01098
353.00 1.01008
353.50 1.00925
354.00 1.00847
354.50 1.00813
355.00 1.00762
355.50 1.00719
356.00 1.00682
356.50 1.00652
357.00 1.00627
357.50 1.00591
358.00 1.00561
358.50 1.00539
359.00 1.00523
359.50 1.00516
360.00 1.00520
