phi[deg] B[T]
0.00 1.20533
0.50 1.20527
1.00 1.20533
1.50 1.20546
2.00 1.20568
2.50 1.20597
3.00 1.20634
3.50 1.20652
4.00 1.20675
4.50 1.20706
5.00 1.20744
5.50 1.20790
6.00 1.20809
6.50 1.20879
7.00 1.20956
7.50 1.21040
8.00 1.21130
8.50 1.21227
9.00 1.21232
9.50 1.21160
10.00 1.21096
10.50 1.21069
11.00 1.21164
11.50 1.21264
12.00 1.21370
12.50 1.21480
13.00 1.21597
13.50 1.21528
14.00 1.21373
14.50 1.21221
15.00 1.21075
15.50 1.20939
16.00 1.21024
16.50 1.21110
17.00 1.21195
17.50 1.21274
18.00 1.21249
18.50 1.20977
19.00 1.20703
19.50 1.20427
20.00 1.20150
20.50 1.19872
21.00 1.19627
21.50 1.19451
22.00 1.19274
22.50 1.19095
23.00 1.18914
23.50 1.18350
24.00 1.17472
24.50 1.16589
25.00 1.15703
25.50 1.14857
26.00 1.14293
26.50 1.13723
27.00 1.13147
27.50 1.12565
28.00 1.11978
28.50 1.10969
29.00 1.09633
29.50 1.08289
30.00 1.06936
30.50 1.05580
31.00 1.04326
31.50 1.03064
32.00 1.01793
32.50 1.00514
33.00 0.99227
33.50 0.97681
34.00 0.95814
34.50 0.93938
35.00 0.92158
35.50 0.90444
36.00 0.88717
36.50 0.86980
37.00 0.85231
37.50 0.83472
38.00 0.81529
38.50 0.79293
39.00 0.77046
39.50 0.74787
40.00 0.72517
40.50 0.70236
41.00 0.68254
41.50 0.66115
42.00 0.63547
42.50 0.61157
43.00 0.59002
43.50 0.56838
44.00 0.54666
44.50 0.52486
45.00 0.50298
45.50 0.48197
46.00 0.46088
46.50 0.43972
47.00 0.41849
47.50 0.39720
48.00 0.37521
48.50 0.35292
49.00 0.33330
49.50 0.31472
50.00 0.29828
50.50 0.28311
51.00 0.26794
51.50 0.25275
52.00 0.23756
52.50 0.22237
53.00 0.21175
53.50 0.20117
54.00 0.19057
54.50 0.17996
55.00 0.16934
55.50 0.15871
56.00 0.14807
56.50 0.13741
57.00 0.12750
57.50 0.11959
58.00 0.11352
58.50 0.10789
59.00 0.10226
59.50 0.09663
60.00 0.09099
60.50 0.08536
61.00 0.07971
61.50 0.07407
62.00 0.06882
62.50 0.06484
63.00 0.06087
63.50 0.05690
64.00 0.05350
64.50 0.05108
65.00 0.04867
65.50 0.04625
66.00 0.04383
66.50 0.04141
67.00 0.03899
67.50 0.03657
68.00 0.03415
68.50 0.03174
69.00 0.02944
69.50 0.02713
70.00 0.02483
70.50 0.02370
71.00 0.02267
71.50 0.02164
72.00 0.02060
72.50 0.01957
73.00 0.01857
73.50 0.01757
74.00 0.01657
74.50 0.01556
75.00 0.01457
75.50 0.01357
76.00 0.01257
76.50 0.01157
77.00 0.01092
77.50 0.01046
78.00 0.01000
78.50 0.00955
79.00 0.00909
79.50 0.00857
80.00 0.00805
80.50 0.00753
81.00 0.00701
81.50 0.00649
82.00 0.00620
82.50 0.00599
83.00 0.00578
83.50 0.00557
84.00 0.00536
84.50 0.00515
85.00 0.00494
85.50 0.00472
86.00 0.00450
86.50 0.00445
87.00 0.00436
87.50 0.00427
88.00 0.00418
88.50 0.00409
89.00 0.00400
89.50 0.00392
90.00 0.00383
90.00 0.00383
90.50 0.00392
91.00 0.00400
91.50 0.00409
92.00 0.00418
92.50 0.00427
93.00 0.00436
93.50 0.00445
94.00 0.00450
94.50 0.00472
95.00 0.00494
95.50 0.00515
96.00 0.00536
96.50 0.00557
97.00 0.00578
97.50 0.00599
98.00 0.00620
98.50 0.00649
99.00 0.00701
99.50 0.00753
100.00 0.00805
100.50 0.00857
101.00 0.00909
101.50 0.00955
102.00 0.01000
102.50 0.01046
103.00 0.01092
103.50 0.01157
104.00 0.01257
104.50 0.01357
105.00 0.01457
105.50 0.01556
106.00 0.01657
106.50 0.01757
107.00 0.01857
107.50 0.01957
108.00 0.02060
108.50 0.02164
109.00 0.02267
109.50 0.02370
110.00 0.02483
110.50 0.02713
111.00 0.02944
111.50 0.03174
112.00 0.03415
112.50 0.03657
113.00 0.03899
113.50 0.04141
114.00 0.04383
114.50 0.04625
115.00 0.04867
115.50 0.05108
116.00 0.05350
116.50 0.05690
117.00 0.06087
117.50 0.06484
118.00 0.06882
118.50 0.07407
119.00 0.07971
119.50 0.08536
120.00 0.09099
120.50 0.09663
121.00 0.10226
121.50 0.10789
122.00 0.11352
122.50 0.11959
123.00 0.12750
123.50 0.13741
124.00 0.14807
124.50 0.15871
125.00 0.16934
125.50 0.17996
126.00 0.19057
126.50 0.20117
127.00 0.21175
127.50 0.22237
128.00 0.23756
128.50 0.25275
129.00 0.26794
129.50 0.28311
130.00 0.29828
130.50 0.31472
131.00 0.33330
131.50 0.35292
132.00 0.37521
132.50 0.39720
133.00 0.41849
133.50 0.43972
134.00 0.46088
134.50 0.48197
135.00 0.50298
135.50 0.52486
136.00 0.54666
136.50 0.56838
137.00 0.59002
137.50 0.61157
138.00 0.63547
138.50 0.66115
139.00 0.68254
139.50 0.70236
140.00 0.72517
140.50 0.74787
141.00 0.77046
141.50 0.79293
142.00 0.81529
142.50 0.83472
143.00 0.85231
143.50 0.86980
144.00 0.88717
144.50 0.90444
145.00 0.92158
145.50 0.93938
146.00 0.95814
146.50 0.97681
147.00 0.99227
147.50 1.00514
148.00 1.01793
148.50 1.03064
149.00 1.04326
149.50 1.05580
150.00 1.06936
150.50 1.08289
151.00 1.09633
151.50 1.10969
152.00 1.11978
152.50 1.12565
153.00 1.13147
153.50 1.13723
154.00 1.14293
154.50 1.14857
155.00 1.15703
155.50 1.16589
156.00 1.17472
156.50 1.18350
157.00 1.18914
157.50 1.19095
158.00 1.19274
158.50 1.19451
159.00 1.19627
159.50 1.19872
160.00 1.20150
160.50 1.20427
161.00 1.20703
161.50 1.20977
162.00 1.21249
162.50 1.21274
163.00 1.21195
163.50 1.21110
164.00 1.21024
164.50 1.20939
165.00 1.21075
165.50 1.21221
166.00 1.21373
166.50 1.21528
167.00 1.21597
167.50 1.21480
168.00 1.21370
168.50 1.21264
169.00 1.21164
169.50 1.21069
170.00 1.21096
170.50 1.21160
171.00 1.21232
171.50 1.21227
172.00 1.21130
172.50 1.21040
173.00 1.20956
173.50 1.20879
174.00 1.20809
174.50 1.20790
175.00 1.20744
175.50 1.20706
176.00 1.20675
176.50 1.20652
177.00 1.20634
177.50 1.20597
178.00 1.20568
178.50 1.20546
179.00 1.20533
179.50 1.20527
180.00 1.20533
180.00 1.20533
180.50 1.20527
181.00 1.20533
181.50 1.20546
182.00 1.20568
182.50 1.20597
183.00 1.20634
183.50 1.20652
184.00 1.20675
184.50 1.20706
185.00 1.20744
185.50 1.20790
186.00 1.20809
186.50 1.20879
187.00 1.20956
187.50 1.21040
188.00 1.21130
188.50 1.21227
189.00 1.21232
189.50 1.21160
190.00 1.21096
190.50 1.21069
191.00 1.21164
191.50 1.21264
192.00 1.21370
192.50 1.21480
193.00 1.21597
193.50 1.21528
194.00 1.21373
194.50 1.21221
195.00 1.21075
195.50 1.20939
196.00 1.21024
196.50 1.21110
197.00 1.21195
197.50 1.21274
198.00 1.21249
198.50 1.20977
199.00 1.20703
199.50 1.20427
200.00 1.20150
200.50 1.19872
201.00 1.19627
201.50 1.19451
202.00 1.19274
202.50 1.19095
203.00 1.18914
203.50 1.18350
204.00 1.17472
204.50 1.16589
205.00 1.15703
205.50 1.14857
206.00 1.14293
206.50 1.13723
207.00 1.13147
207.50 1.12565
208.00 1.11978
208.50 1.10969
209.00 1.09633
209.50 1.08289
210.00 1.06936
210.50 1.05580
211.00 1.04326
211.50 1.03064
212.00 1.01793
212.50 1.00514
213.00 0.99227
213.50 0.97681
214.00 0.95814
214.50 0.93938
215.00 0.92158
215.50 0.90444
216.00 0.88717
216.50 0.86980
217.00 0.85231
217.50 0.83472
218.00 0.81529
218.50 0.79293
219.00 0.77046
219.50 0.74787
220.00 0.72517
220.50 0.70236
221.00 0.68254
221.50 0.66115
222.00 0.63547
222.50 0.61157
223.00 0.59002
223.50 0.56838
224.00 0.54666
224.50 0.52486
225.00 0.50298
225.50 0.48197
226.00 0.46088
226.50 0.43972
227.00 0.41849
227.50 0.39720
228.00 0.37521
228.50 0.35292
229.00 0.33330
229.50 0.31472
230.00 0.29828
230.50 0.28311
231.00 0.26794
231.50 0.25275
232.00 0.23756
232.50 0.22237
233.00 0.21175
233.50 0.20117
234.00 0.19057
234.50 0.17996
235.00 0.16934
235.50 0.15871
236.00 0.14807
236.50 0.13741
237.00 0.12750
237.50 0.11959
238.00 0.11352
238.50 0.10789
239.00 0.10226
239.50 0.09663
240.00 0.09099
240.50 0.08536
241.00 0.07971
241.50 0.07407
242.00 0.06882
242.50 0.06484
243.00 0.06087
243.50 0.05690
244.00 0.05350
244.50 0.05108
245.00 0.04867
245.50 0.04625
246.00 0.04383
246.50 0.04141
247.00 0.03899
247.50 0.03657
248.00 0.03415
248.50 0.03174
249.00 0.02944
249.50 0.02713
250.00 0.02483
250.50 0.02370
251.00 0.02267
251.50 0.02164
252.00 0.02060
252.50 0.01957
253.00 0.01857
253.50 0.01757
254.00 0.01657
254.50 0.01556
255.00 0.01457
255.50 0.01357
256.00 0.01257
256.50 0.01157
257.00 0.01092
257.50 0.01046
258.00 0.01000
258.50 0.00955
259.00 0.00909
259.50 0.00857
260.00 0.00805
260.50 0.00753
261.00 0.00701
261.50 0.00649
262.00 0.00620
262.50 0.00599
263.00 0.00578
263.50 0.00557
264.00 0.00536
264.50 0.00515
265.00 0.00494
265.50 0.00472
266.00 0.00450
266.50 0.00445
267.00 0.00436
267.50 0.00427
268.00 0.00418
268.50 0.00409
269.00 0.00400
269.50 0.00392
270.00 0.00383
270.00 0.00383
270.50 0.00392
271.00 0.00400
271.50 0.00409
272.00 0.00418
272.50 0.00427
273.00 0.00436
273.50 0.00445
274.00 0.00450
274.50 0.00472
275.00 0.00494
275.50 0.00515
276.00 0.00536
276.50 0.00557
277.00 0.00578
277.50 0.00599
278.00 0.00620
278.50 0.00649
279.00 0.00701
279.50 0.00753
280.00 0.00805
280.50 0.00857
281.00 0.00909
281.50 0.00955
282.00 0.01000
282.50 0.01046
283.00 0.01092
283.50 0.01157
284.00 0.01257
284.50 0.01357
285.00 0.01457
285.50 0.01556
286.00 0.01657
286.50 0.01757
287.00 0.01857
287.50 0.01957
288.00 0.02060
288.50 0.02164
289.00 0.02267
289.50 0.02370
290.00 0.02483
290.50 0.02713
291.00 0.02944
291.50 0.03174
292.00 0.03415
292.50 0.03657
293.00 0.03899
293.50 0.04141
294.00 0.04383
294.50 0.04625
295.00 0.04867
295.50 0.05108
296.00 0.05350
296.50 0.05690
297.00 0.06087
297.50 0.06484
298.00 0.06882
298.50 0.07407
299.00 0.07971
299.50 0.08536
300.00 0.09099
300.50 0.09663
301.00 0.10226
301.50 0.10789
302.00 0.11352
302.50 0.11959
303.00 0.12750
303.50 0.13741
304.00 0.14807
304.50 0.15871
305.00 0.16934
305.50 0.17996
306.00 0.19057
306.50 0.20117
307.00 0.21175
307.50 0.22237
308.00 0.23756
308.50 0.25275
309.00 0.26794
309.50 0.28311
310.00 0.29828
310.50 0.31472
311.00 0.33330
311.50 0.35292
312.00 0.37521
312.50 0.39720
313.00 0.41849
313.50 0.43972
314.00 0.46088
314.50 0.48197
315.00 0.50298
315.50 0.52486
316.00 0.54666
316.50 0.56838
317.00 0.59002
317.50 0.61157
318.00 0.63547
318.50 0.66115
319.00 0.68254
319.50 0.70236
320.00 0.72517
320.50 0.74787
321.00 0.77046
321.50 0.79293
322.00 0.81529
322.50 0.83472
323.00 0.85231
323.50 0.86980
324.00 0.88717
324.50 0.90444
325.00 0.92158
325.50 0.93938
326.00 0.95814
326.50 0.97681
327.00 0.99227
327.50 1.00514
328.00 1.01793
328.50 1.03064
329.00 1.04326
329.50 1.05580
330.00 1.06936
330.50 1.08289
331.00 1.09633
331.50 1.10969
332.00 1.11978
332.50 1.12565
333.00 1.13147
333.50 1.13723
334.00 1.14293
334.50 1.14857
335.00 1.15703
335.50 1.16589
336.00 1.17472
336.50 1.18350
337.00 1.18914
337.50 1.19095
338.00 1.19274
338.50 1.19451
339.00 1.19627
339.50 1.19872
340.00 1.20150
340.50 1.20427
341.00 1.20703
341.50 1.20977
342.00 1.21249
342.50 1.21274
343.00 1.21195
343.50 1.21110
344.00 1.21024
344.50 1.20939
345.00 1.21075
345.50 1.21221
346.00 1.21373
346.50 1.21528
347.00 1.21597
347.50 1.21480
348.00 1.21370
348.50 1.21264
349.00 1.21164
349.50 1.21069
350.00 1.21096
350.50 1.21160
351.00 1.21232
351.50 1.21227
352.00 1.21130
352.50 1.21040
353.00 1.20956
353.50 1.20879
354.00 1.20809
354.50 1.20790
355.00 1.20744
355.50 1.20706
356.00 1.20675
356.50 1.20652
357.00 1.20634
357.50 1.20597
358.00 1.20568
358.50 1.20546
359.00 1.20533
359.50 1.20527
360.00 1.20533
