phi[deg] B[T]
0.00 2.02888
0.50 2.02815
1.00 2.02769
1.50 2.02787
2.00 2.02818
2.50 2.02860
3.00 2.02757
3.50 2.02669
4.00 2.02596
4.50 2.02603
5.00 2.02623
5.50 2.02631
6.00 2.02623
6.50 2.02568
7.00 2.02471
7.50 2.02386
8.00 2.02314
8.50 2.02254
9.00 2.02252
9.50 2.02267
10.00 2.02151
10.50 2.01934
11.00 2.01728
11.50 2.01533
12.00 2.01384
12.50 2.01296
13.00 2.01183
13.50 2.00775
14.00 2.00376
14.50 1.99986
15.00 1.99605
15.50 1.99234
16.00 1.98990
16.50 1.98709
17.00 1.98172
17.50 1.97544
18.00 1.96921
18.50 1.96303
19.00 1.95690
19.50 1.95083
20.00 1.94481
20.50 1.93975
21.00 1.93065
21.50 1.91975
22.00 1.90885
22.50 1.89795
23.00 1.88706
23.50 1.87617
24.00 1.86529
24.50 1.85471
25.00 1.84022
25.50 1.82324
26.00 1.80679
26.50 1.79034
27.00 1.77389
27.50 1.75745
28.00 1.74101
28.50 1.72412
29.00 1.70502
29.50 1.68594
30.00 1.66603
30.50 1.64489
31.00 1.62376
31.50 1.60419
32.00 1.58490
32.50 1.56496
33.00 1.54146
33.50 1.51795
34.00 1.49442
34.50 1.47181
35.00 1.44936
35.50 1.42430
36.00 1.39922
36.50 1.37411
37.00 1.34889
37.50 1.32361
38.00 1.29829
38.50 1.27294
39.00 1.24788
39.50 1.22244
40.00 1.19666
40.50 1.17086
41.00 1.14542
41.50 1.11918
42.00 1.09435
42.50 1.06967
43.00 1.04495
43.50 1.01993
44.00 0.99470
44.50 0.96943
45.00 0.94406
45.50 0.91962
46.00 0.89541
46.50 0.87115
47.00 0.84667
47.50 0.82198
48.00 0.79725
48.50 0.77224
49.00 0.74841
49.50 0.72453
50.00 0.70060
50.50 0.67660
51.00 0.65258
51.50 0.62982
52.00 0.60698
52.50 0.58466
53.00 0.56241
53.50 0.54006
54.00 0.51764
54.50 0.49566
55.00 0.47548
55.50 0.45499
56.00 0.43422
56.50 0.41338
57.00 0.39245
57.50 0.37150
58.00 0.35105
58.50 0.33119
59.00 0.31308
59.50 0.29489
60.00 0.27665
60.50 0.25834
61.00 0.23997
61.50 0.22198
62.00 0.20750
62.50 0.19299
63.00 0.17913
63.50 0.16527
64.00 0.15138
64.50 0.14114
65.00 0.13132
65.50 0.12148
66.00 0.11141
66.50 0.10131
67.00 0.09213
67.50 0.08525
68.00 0.07925
68.50 0.07325
69.00 0.06725
69.50 0.06125
70.00 0.05526
70.50 0.05046
71.00 0.04653
71.50 0.04327
72.00 0.04001
72.50 0.03675
73.00 0.03349
73.50 0.03024
74.00 0.02760
74.50 0.02540
75.00 0.02367
75.50 0.02193
76.00 0.02020
76.50 0.01846
77.00 0.01673
77.50 0.01525
78.00 0.01407
78.50 0.01314
79.00 0.01221
79.50 0.01129
80.00 0.01037
80.50 0.00945
81.00 0.00866
81.50 0.00806
82.00 0.00757
82.50 0.00709
83.00 0.00661
83.50 0.00613
84.00 0.00565
84.50 0.00527
85.00 0.00496
85.50 0.00476
86.00 0.00456
86.50 0.00437
87.00 0.00414
87.50 0.00391
88.00 0.00380
88.50 0.00375
89.00 0.00367
89.50 0.00359
90.00 0.00351
90.00 0.00351
90.50 0.00359
91.00 0.00367
91.50 0.00375
92.00 0.00380
92.50 0.00391
93.00 0.00414
93.50 0.00437
94.00 0.00456
94.50 0.00476
95.00 0.00496
95.50 0.00527
96.00 0.00565
96.50 0.00613
97.00 0.00661
97.50 0.00709
98.00 0.00757
98.50 0.00806
99.00 0.00866
99.50 0.00945
100.00 0.01037
100.50 0.01129
101.00 0.01221
101.50 0.01314
102.00 0.01407
102.50 0.01525
103.00 0.01673
103.50 0.01846
104.00 0.02020
104.50 0.02193
105.00 0.02367
105.50 0.02540
106.00 0.02760
106.50 0.03024
107.00 0.03349
107.50 0.03675
108.00 0.04001
108.50 0.04327
109.00 0.04653
109.50 0.05046
110.00 0.05526
110.50 0.06125
111.00 0.06725
111.50 0.07325
112.00 0.07925
112.50 0.08525
113.00 0.09213
113.50 0.10131
114.00 0.11141
114.50 0.12148
115.00 0.13132
115.50 0.14114
116.00 0.15138
116.50 0.16527
117.00 0.17913
117.50 0.19299
118.00 0.20750
118.50 0.22198
119.00 0.23997
119.50 0.25834
120.00 0.27665
120.50 0.29489
121.00 0.31308
121.50 0.33119
122.00 0.35105
122.50 0.37150
123.00 0.39245
123.50 0.41338
124.00 0.43422
124.50 0.45499
125.00 0.47548
125.50 0.49566
126.00 0.51764
126.50 0.54006
127.00 0.56241
127.50 0.58466
128.00 0.60698
128.50 0.62982
129.00 0.65258
129.50 0.67660
130.00 0.70060
130.50 0.72453
131.00 0.74841
131.50 0.77224
132.00 0.79725
132.50 0.82198
133.00 0.84667
133.50 0.87115
134.00 0.89541
134.50 0.91962
135.00 0.94406
135.50 0.96943
136.00 0.99470
136.50 1.01993
137.00 1.04495
137.50 1.06967
138.00 1.09435
138.50 1.11918
139.00 1.14542
139.50 1.17086
140.00 1.19666
140.50 1.22244
141.00 1.24788
141.50 1.27294
142.00 1.29829
142.50 1.32361
143.00 1.34889
143.50 1.37411
144.00 1.39922
144.50 1.42430
145.00 1.44936
145.50 1.47181
146.00 1.49442
146.50 1.51795
147.00 1.54146
147.50 1.56496
148.00 1.58490
148.50 1.60419
149.00 1.62376
149.50 1.64489
150.00 1.66603
150.50 1.68594
151.00 1.70502
151.50 1.72412
152.00 1.74101
152.50 1.75745
153.00 1.77389
153.50 1.79034
154.00 1.80679
154.50 1.82324
155.00 1.84022
155.50 1.85471
156.00 1.86529
156.50 1.87617
157.00 1.88706
157.50 1.89795
158.00 1.90885
158.50 1.91975
159.00 1.93065
159.50 1.93975
160.00 1.94481
160.50 1.95083
161.00 1.95690
161.50 1.96303
162.00 1.96921
162.50 1.97544
163.00 1.98172
163.50 1.98709
164.00 1.98990
164.50 1.99234
165.00 1.99605
165.50 1.99986
166.00 2.00376
166.50 2.00775
167.00 2.01183
167.50 2.01296
168.00 2.01384
168.50 2.01533
169.00 2.01728
169.50 2.01934
170.00 2.02151
170.50 2.02267
171.00 2.02252
171.50 2.02254
172.00 2.02314
172.50 2.02386
173.00 2.02471
173.50 2.02568
174.00 2.02623
174.50 2.02631
175.00 2.02623
175.50 2.02603
176.00 2.02596
176.50 2.02669
177.00 2.02757
177.50 2.02860
178.00 2.02818
178.50 2.02787
179.00 2.02769
179.50 2.02815
180.00 2.02888
180.00 2.02888
180.50 2.02815
181.00 2.02769
181.50 2.02787
182.00 2.02818
182.50 2.02860
183.00 2.02757
183.50 2.02669
184.00 2.02596
184.50 2.02603
185.00 2.02623
185.50 2.02631
186.00 2.02623
186.50 2.02568
187.00 2.02471
187.50 2.02386
188.00 2.02314
188.50 2.02254
189.00 2.02252
189.50 2.02267
190.00 2.02151
190.50 2.01934
191.00 2.01728
191.50 2.01533
192.00 2.01384
192.50 2.01296
193.00 2.01183
193.50 2.00775
194.00 2.00376
194.50 1.99986
195.00 1.99605
195.50 1.99234
196.00 1.98990
196.50 1.98709
197.00 1.98172
197.50 1.97544
198.00 1.96921
198.50 1.96303
199.00 1.95690
199.50 1.95083
200.00 1.94481
200.50 1.93975
201.00 1.93065
201.50 1.91975
202.00 1.90885
202.50 1.89795
203.00 1.88706
203.50 1.87617
204.00 1.86529
204.50 1.85471
205.00 1.84022
205.50 1.82324
206.00 1.80679
206.50 1.79034
207.00 1.77389
207.50 1.75745
208.00 1.74101
208.50 1.72412
209.00 1.70502
209.50 1.68594
210.00 1.66603
210.50 1.64489
211.00 1.62376
211.50 1.60419
212.00 1.58490
212.50 1.56496
213.00 1.54146
213.50 1.51795
214.00 1.49442
214.50 1.47181
215.00 1.44936
215.50 1.42430
216.00 1.39922
216.50 1.37411
217.00 1.34889
217.50 1.32361
218.00 1.29829
218.50 1.27294
219.00 1.24788
219.50 1.22244
220.00 1.19666
220.50 1.17086
221.00 1.14542
221.50 1.11918
222.00 1.09435
222.50 1.06967
223.00 1.04495
223.50 1.01993
224.00 0.99470
224.50 0.96943
225.00 0.94406
225.50 0.91962
226.00 0.89541
226.50 0.87115
227.00 0.84667
227.50 0.82198
228.00 0.79725
228.50 0.77224
229.00 0.74841
229.50 0.72453
230.00 0.70060
230.50 0.67660
231.00 0.65258
231.50 0.62982
232.00 0.60698
232.50 0.58466
233.00 0.56241
233.50 0.54006
234.00 0.51764
234.50 0.49566
235.00 0.47548
235.50 0.45499
236.00 0.43422
236.50 0.41338
237.00 0.39245
237.50 0.37150
238.00 0.35105
238.50 0.33119
239.00 0.31308
239.50 0.29489
240.00 0.27665
240.50 0.25834
241.00 0.23997
241.50 0.22198
242.00 0.20750
242.50 0.19299
243.00 0.17913
243.50 0.16527
244.00 0.15138
244.50 0.14114
245.00 0.13132
245.50 0.12148
246.00 0.11141
246.50 0.10131
247.00 0.09213
247.50 0.08525
248.00 0.07925
248.50 0.07325
249.00 0.06725
249.50 0.06125
250.00 0.05526
250.50 0.05046
251.00 0.04653
251.50 0.04327
252.00 0.04001
252.50 0.03675
253.00 0.03349
253.50 0.03024
254.00 0.02760
254.50 0.02540
255.00 0.02367
255.50 0.02193
256.00 0.02020
256.50 0.01846
257.00 0.01673
257.50 0.01525
258.00 0.01407
258.50 0.01314
259.00 0.01221
259.50 0.01129
260.00 0.01037
260.50 0.00945
261.00 0.00866
261.50 0.00806
262.00 0.00757
262.50 0.00709
263.00 0.00661
263.50 0.00613
264.00 0.00565
264.50 0.00527
265.00 0.00496
265.50 0.00476
266.00 0.00456
266.50 0.00437
267.00 0.00414
267.50 0.00391
268.00 0.00380
268.50 0.00375
269.00 0.00367
269.50 0.00359
270.00 0.00351
270.00 0.00351
270.50 0.00359
271.00 0.00367
271.50 0.00375
272.00 0.00380
272.50 0.00391
273.00 0.00414
273.50 0.00437
274.00 0.00456
274.50 0.00476
275.00 0.00496
275.50 0.00527
276.00 0.00565
276.50 0.00613
277.00 0.00661
277.50 0.00709
278.00 0.00757
278.50 0.00806
279.00 0.00866
279.50 0.00945
280.00 0.01037
280.50 0.01129
281.00 0.01221
281.50 0.01314
282.00 0.01407
282.50 0.01525
283.00 0.01673
283.50 0.01846
284.00 0.02020
284.50 0.02193
285.00 0.02367
285.50 0.02540
286.00 0.02760
286.50 0.03024
287.00 0.03349
287.50 0.03675
288.00 0.04001
288.50 0.04327
289.00 0.04653
289.50 0.05046
290.00 0.05526
290.50 0.06125
291.00 0.06725
291.50 0.07325
292.00 0.07925
292.50 0.08525
293.00 0.09213
293.50 0.10131
294.00 0.11141
294.50 0.12148
295.00 0.13132
295.50 0.14114
296.00 0.15138
296.50 0.16527
297.00 0.17913
297.50 0.19299
298.00 0.20750
298.50 0.22198
299.00 0.23997
299.50 0.25834
300.00 0.27665
300.50 0.29489
301.00 0.31308
301.50 0.33119
302.00 0.35105
302.50 0.37150
303.00 0.39245
303.50 0.41338
304.00 0.43422
304.50 0.45499
305.00 0.47548
305.50 0.49566
306.00 0.51764
306.50 0.54006
307.00 0.56241
307.50 0.58466
308.00 0.60698
308.50 0.62982
309.00 0.65258
309.50 0.67660
310.00 0.70060
310.50 0.72453
311.00 0.74841
311.50 0.77224
312.00 0.79725
312.50 0.82198
313.00 0.84667
313.50 0.87115
314.00 0.89541
314.50 0.91962
315.00 0.94406
315.50 0.96943
316.00 0.99470
316.50 1.01993
317.00 1.04495
317.50 1.06967
318.00 1.09435
318.50 1.11918
319.00 1.14542
319.50 1.17086
320.00 1.19666
320.50 1.22244
321.00 1.24788
321.50 1.27294
322.00 1.29829
322.50 1.32361
323.00 1.34889
323.50 1.37411
324.00 1.39922
324.50 1.42430
325.00 1.44936
325.50 1.47181
326.00 1.49442
326.50 1.51795
327.00 1.54146
327.50 1.56496
328.00 1.58490
328.50 1.60419
329.00 1.62376
329.50 1.64489
330.00 1.66603
330.50 1.68594
331.00 1.70502
331.50 1.72412
332.00 1.74101
332.50 1.75745
333.00 1.77389
333.50 1.79034
334.00 1.80679
334.50 1.82324
335.00 1.84022
335.50 1.85471
336.00 1.86529
336.50 1.87617
337.00 1.88706
337.50 1.89795
338.00 1.90885
338.50 1.91975
339.00 1.93065
339.50 1.93975
340.00 1.94481
340.50 1.95083
341.00 1.95690
341.50 1.96303
342.00 1.96921
342.50 1.97544
343.00 1.98172
343.50 1.98709
344.00 1.98990
344.50 1.99234
345.00 1.99605
345.50 1.99986
346.00 2.00376
346.50 2.00775
347.00 2.01183
347.50 2.01296
348.00 2.01384
348.50 2.01533
349.00 2.01728
349.50 2.01934
350.00 2.02151
350.50 2.02267
351.00 2.02252
351.50 2.02254
352.00 2.02314
352.50 2.02386
353.00 2.02471
353.50 2.02568
354.00 2.02623
354.50 2.02631
355.00 2.02623
355.50 2.02603
356.00 2.02596
356.50 2.02669
357.00 2.02757
357.50 2.02860
358.00 2.02818
358.50 2.02787
359.00 2.02769
359.50 2.02815
360.00 2.02888
