phi[deg] B[T]
0.00 1.15682
0.50 1.15674
1.00 1.15675
1.50 1.15689
2.00 1.15711
2.50 1.15740
3.00 1.15775
3.50 1.15786
4.00 1.15804
4.50 1.15830
5.00 1.15863
5.50 1.15909
6.00 1.15976
6.50 1.16043
7.00 1.16117
7.50 1.16197
8.00 1.16283
8.50 1.16377
9.00 1.16398
9.50 1.16285
10.00 1.16178
10.50 1.16077
11.00 1.16180
11.50 1.16302
12.00 1.16428
12.50 1.16558
13.00 1.16692
13.50 1.16830
14.00 1.16949
14.50 1.17046
15.00 1.17147
15.50 1.17252
16.00 1.17361
16.50 1.17474
17.00 1.17310
17.50 1.16933
18.00 1.16557
18.50 1.16181
19.00 1.15806
19.50 1.15483
20.00 1.15544
20.50 1.15602
21.00 1.15657
21.50 1.15709
22.00 1.15759
22.50 1.15443
23.00 1.15015
23.50 1.14584
24.00 1.14149
24.50 1.13711
25.00 1.13057
25.50 1.12104
26.00 1.11144
26.50 1.10177
27.00 1.09202
27.50 1.08219
28.00 1.07229
28.50 1.06234
29.00 1.05434
29.50 1.04625
30.00 1.03808
30.50 1.02982
31.00 1.02148
31.50 1.01306
32.00 0.99816
32.50 0.98147
33.00 0.96469
33.50 0.94780
34.00 0.93082
34.50 0.91430
35.00 0.90064
35.50 0.88264
36.00 0.86437
36.50 0.84598
37.00 0.82745
37.50 0.80878
38.00 0.78999
38.50 0.77137
39.00 0.75216
39.50 0.73285
40.00 0.71343
40.50 0.69390
41.00 0.67428
41.50 0.65455
42.00 0.63243
42.50 0.60982
43.00 0.58710
43.50 0.56429
44.00 0.54139
44.50 0.51839
45.00 0.49586
45.50 0.47399
46.00 0.45441
46.50 0.43477
47.00 0.41510
47.50 0.39539
48.00 0.37563
48.50 0.35688
49.00 0.33949
49.50 0.32206
50.00 0.30459
50.50 0.28708
51.00 0.26917
51.50 0.25604
52.00 0.24371
52.50 0.23140
53.00 0.21907
53.50 0.20672
54.00 0.19436
54.50 0.18198
55.00 0.16977
55.50 0.16106
56.00 0.15235
56.50 0.14421
57.00 0.13748
57.50 0.13074
58.00 0.12399
58.50 0.11724
59.00 0.11048
59.50 0.10371
60.00 0.09694
60.50 0.09017
61.00 0.08339
61.50 0.07791
62.00 0.07378
62.50 0.06966
63.00 0.06555
63.50 0.06150
64.00 0.05879
64.50 0.05609
65.00 0.05338
65.50 0.05067
66.00 0.04796
66.50 0.04524
67.00 0.04252
67.50 0.03980
68.00 0.03708
68.50 0.03435
69.00 0.03181
69.50 0.03026
70.00 0.02872
70.50 0.02718
71.00 0.02564
71.50 0.02411
72.00 0.02259
72.50 0.02107
73.00 0.01960
73.50 0.01858
74.00 0.01756
74.50 0.01654
75.00 0.01552
75.50 0.01451
76.00 0.01390
76.50 0.01334
77.00 0.01278
77.50 0.01222
78.00 0.01166
78.50 0.01105
79.00 0.01043
79.50 0.00981
80.00 0.00919
80.50 0.00857
81.00 0.00796
81.50 0.00760
82.00 0.00735
82.50 0.00711
83.00 0.00687
83.50 0.00663
84.00 0.00638
84.50 0.00614
85.00 0.00589
85.50 0.00562
86.00 0.00541
86.50 0.00536
87.00 0.00526
87.50 0.00515
88.00 0.00505
88.50 0.00494
89.00 0.00484
89.50 0.00474
90.00 0.00464
90.00 0.00464
90.50 0.00474
91.00 0.00484
91.50 0.00494
92.00 0.00505
92.50 0.00515
93.00 0.00526
93.50 0.00536
94.00 0.00541
94.50 0.00562
95.00 0.00589
95.50 0.00614
96.00 0.00638
96.50 0.00663
97.00 0.00687
97.50 0.00711
98.00 0.00735
98.50 0.00760
99.00 0.00796
99.50 0.00857
100.00 0.00919
100.50 0.00981
101.00 0.01043
101.50 0.01105
102.00 0.01166
102.50 0.01222
103.00 0.01278
103.50 0.01334
104.00 0.01390
104.50 0.01451
105.00 0.01552
105.50 0.01654
106.00 0.01756
106.50 0.01858
107.00 0.01960
107.50 0.02107
108.00 0.02259
108.50 0.02411
109.00 0.02564
109.50 0.02718
110.00 0.02872
110.50 0.03026
111.00 0.03181
111.50 0.03435
112.00 0.03708
112.50 0.03980
113.00 0.04252
113.50 0.04524
114.00 0.04796
114.50 0.05067
115.00 0.05338
115.50 0.05609
116.00 0.05879
116.50 0.06150
117.00 0.06555
117.50 0.06966
118.00 0.07378
118.50 0.07791
119.00 0.08339
119.50 0.09017
120.00 0.09694
120.50 0.10371
121.00 0.11048
121.50 0.11724
122.00 0.12399
122.50 0.13074
123.00 0.13748
123.50 0.14421
124.00 0.15235
124.50 0.16106
125.00 0.16977
125.50 0.18198
126.00 0.19436
126.50 0.20672
127.00 0.21907
127.50 0.23140
128.00 0.24371
128.50 0.25604
129.00 0.26917
129.50 0.28708
130.00 0.30459
130.50 0.32206
131.00 0.33949
131.50 0.35688
132.00 0.37563
132.50 0.39539
133.00 0.41510
133.50 0.43477
134.00 0.45441
134.50 0.47399
135.00 0.49586
135.50 0.51839
136.00 0.54139
136.50 0.56429
137.00 0.58710
137.50 0.60982
138.00 0.63243
138.50 0.65455
139.00 0.67428
139.50 0.69390
140.00 0.71343
140.50 0.73285
141.00 0.75216
141.50 0.77137
142.00 0.78999
142.50 0.80878
143.00 0.82745
143.50 0.84598
144.00 0.86437
144.50 0.88264
145.00 0.90064
145.50 0.91430
146.00 0.93082
146.50 0.94780
147.00 0.96469
147.50 0.98147
148.00 0.99816
148.50 1.01306
149.00 1.02148
149.50 1.02982
150.00 1.03808
150.50 1.04625
151.00 1.05434
151.50 1.06234
152.00 1.07229
152.50 1.08219
153.00 1.09202
153.50 1.10177
154.00 1.11144
154.50 1.12104
155.00 1.13057
155.50 1.13711
156.00 1.14149
156.50 1.14584
157.00 1.15015
157.50 1.15443
158.00 1.15759
158.50 1.15709
159.00 1.15657
159.50 1.15602
160.00 1.15544
160.50 1.15483
161.00 1.15806
161.50 1.16181
162.00 1.16557
162.50 1.16933
163.00 1.17310
163.50 1.17474
164.00 1.17361
164.50 1.17252
165.00 1.17147
165.50 1.17046
166.00 1.16949
166.50 1.16830
167.00 1.16692
167.50 1.16558
168.00 1.16428
168.50 1.16302
169.00 1.16180
169.50 1.16077
170.00 1.16178
170.50 1.16285
171.00 1.16398
171.50 1.16377
172.00 1.16283
172.50 1.16197
173.00 1.16117
173.50 1.16043
174.00 1.15976
174.50 1.15909
175.00 1.15863
175.50 1.15830
176.00 1.15804
176.50 1.15786
177.00 1.15775
177.50 1.15740
178.00 1.15711
178.50 1.15689
179.00 1.15675
179.50 1.15674
180.00 1.15682
180.00 1.15682
180.50 1.15674
181.00 1.15675
181.50 1.15689
182.00 1.15711
182.50 1.15740
183.00 1.15775
183.50 1.15786
184.00 1.15804
184.50 1.15830
185.00 1.15863
185.50 1.15909
186.00 1.15976
186.50 1.16043
187.00 1.16117
187.50 1.16197
188.00 1.16283
188.50 1.16377
189.00 1.16398
189.50 1.16285
190.00 1.16178
190.50 1.16077
191.00 1.16180
191.50 1.16302
192.00 1.16428
192.50 1.16558
193.00 1.16692
193.50 1.16830
194.00 1.16949
194.50 1.17046
195.00 1.17147
195.50 1.17252
196.00 1.17361
196.50 1.17474
197.00 1.17310
197.50 1.16933
198.00 1.16557
198.50 1.16181
199.00 1.15806
199.50 1.15483
200.00 1.15544
200.50 1.15602
201.00 1.15657
201.50 1.15709
202.00 1.15759
202.50 1.15443
203.00 1.15015
203.50 1.14584
204.00 1.14149
204.50 1.13711
205.00 1.13057
205.50 1.12104
206.00 1.11144
206.50 1.10177
207.00 1.09202
207.50 1.08219
208.00 1.07229
208.50 1.06234
209.00 1.05434
209.50 1.04625
210.00 1.03808
210.50 1.02982
211.00 1.02148
211.50 1.01306
212.00 0.99816
212.50 0.98147
213.00 0.96469
213.50 0.94780
214.00 0.93082
214.50 0.91430
215.00 0.90064
215.50 0.88264
216.00 0.86437
216.50 0.84598
217.00 0.82745
217.50 0.80878
218.00 0.78999
218.50 0.77137
219.00 0.75216
219.50 0.73285
220.00 0.71343
220.50 0.69390
221.00 0.67428
221.50 0.65455
222.00 0.63243
222.50 0.60982
223.00 0.58710
223.50 0.56429
224.00 0.54139
224.50 0.51839
225.00 0.49586
225.50 0.47399
226.00 0.45441
226.50 0.43477
227.00 0.41510
227.50 0.39539
228.00 0.37563
228.50 0.35688
229.00 0.33949
229.50 0.32206
230.00 0.30459
230.50 0.28708
231.00 0.26917
231.50 0.25604
232.00 0.24371
232.50 0.23140
233.00 0.21907
233.50 0.20672
234.00 0.19436
234.50 0.18198
235.00 0.16977
235.50 0.16106
236.00 0.15235
236.50 0.14421
237.00 0.13748
237.50 0.13074
238.00 0.12399
238.50 0.11724
239.00 0.11048
239.50 0.10371
240.00 0.09694
240.50 0.09017
241.00 0.08339
241.50 0.07791
242.00 0.07378
242.50 0.06966
243.00 0.06555
243.50 0.06150
244.00 0.05879
244.50 0.05609
245.00 0.05338
245.50 0.05067
246.00 0.04796
246.50 0.04524
247.00 0.04252
247.50 0.03980
248.00 0.03708
248.50 0.03435
249.00 0.03181
249.50 0.03026
250.00 0.02872
250.50 0.02718
251.00 0.02564
251.50 0.02411
252.00 0.02259
252.50 0.02107
253.00 0.01960
253.50 0.01858
254.00 0.01756
254.50 0.01654
255.00 0.01552
255.50 0.01451
256.00 0.01390
256.50 0.01334
257.00 0.01278
257.50 0.01222
258.00 0.01166
258.50 0.01105
259.00 0.01043
259.50 0.00981
260.00 0.00919
260.50 0.00857
261.00 0.00796
261.50 0.00760
262.00 0.00735
262.50 0.00711
263.00 0.00687
263.50 0.00663
264.00 0.00638
264.50 0.00614
265.00 0.00589
265.50 0.00562
266.00 0.00541
266.50 0.00536
267.00 0.00526
267.50 0.00515
268.00 0.00505
268.50 0.00494
269.00 0.00484
269.50 0.00474
270.00 0.00464
270.00 0.00464
270.50 0.00474
271.00 0.00484
271.50 0.00494
272.00 0.00505
272.50 0.00515
273.00 0.00526
273.50 0.00536
274.00 0.00541
274.50 0.00562
275.00 0.00589
275.50 0.00614
276.00 0.00638
276.50 0.00663
277.00 0.00687
277.50 0.00711
278.00 0.00735
278.50 0.00760
279.00 0.00796
279.50 0.00857
280.00 0.00919
280.50 0.00981
281.00 0.01043
281.50 0.01105
282.00 0.01166
282.50 0.01222
283.00 0.01278
283.50 0.01334
284.00 0.01390
284.50 0.01451
285.00 0.01552
285.50 0.01654
286.00 0.01756
286.50 0.01858
287.00 0.01960
287.50 0.02107
288.00 0.02259
288.50 0.02411
289.00 0.02564
289.50 0.02718
290.00 0.02872
290.50 0.03026
291.00 0.03181
291.50 0.03435
292.00 0.03708
292.50 0.03980
293.00 0.04252
293.50 0.04524
294.00 0.04796
294.50 0.05067
295.00 0.05338
295.50 0.05609
296.00 0.05879
296.50 0.06150
297.00 0.06555
297.50 0.06966
298.00 0.07378
298.50 0.07791
299.00 0.08339
299.50 0.09017
300.00 0.09694
300.50 0.10371
301.00 0.11048
301.50 0.11724
302.00 0.12399
302.50 0.13074
303.00 0.13748
303.50 0.14421
304.00 0.15235
304.50 0.16106
305.00 0.16977
305.50 0.18198
306.00 0.19436
306.50 0.20672
307.00 0.21907
307.50 0.23140
308.00 0.24371
308.50 0.25604
309.00 0.26917
309.50 0.28708
310.00 0.30459
310.50 0.32206
311.00 0.33949
311.50 0.35688
312.00 0.37563
312.50 0.39539
313.00 0.41510
313.50 0.43477
314.00 0.45441
314.50 0.47399
315.00 0.49586
315.50 0.51839
316.00 0.54139
316.50 0.56429
317.00 0.58710
317.50 0.60982
318.00 0.63243
318.50 0.65455
319.00 0.67428
319.50 0.69390
320.00 0.71343
320.50 0.73285
321.00 0.75216
321.50 0.77137
322.00 0.78999
322.50 0.80878
323.00 0.82745
323.50 0.84598
324.00 0.86437
324.50 0.88264
325.00 0.90064
325.50 0.91430
326.00 0.93082
326.50 0.94780
327.00 0.96469
327.50 0.98147
328.00 0.99816
328.50 1.01306
329.00 1.02148
329.50 1.02982
330.00 1.03808
330.50 1.04625
331.00 1.05434
331.50 1.06234
332.00 1.07229
332.50 1.08219
333.00 1.09202
333.50 1.10177
334.00 1.11144
334.50 1.12104
335.00 1.13057
335.50 1.13711
336.00 1.14149
336.50 1.14584
337.00 1.15015
337.50 1.15443
338.00 1.15759
338.50 1.15709
339.00 1.15657
339.50 1.15602
340.00 1.15544
340.50 1.15483
341.00 1.15806
341.50 1.16181
342.00 1.16557
342.50 1.16933
343.00 1.17310
343.50 1.17474
344.00 1.17361
344.50 1.17252
345.00 1.17147
345.50 1.17046
346.00 1.16949
346.50 1.16830
347.00 1.16692
347.50 1.16558
348.00 1.16428
348.50 1.16302
349.00 1.16180
349.50 1.16077
350.00 1.16178
350.50 1.16285
351.00 1.16398
351.50 1.16377
352.00 1.16283
352.50 1.16197
353.00 1.16117
353.50 1.16043
354.00 1.15976
354.50 1.15909
355.00 1.15863
355.50 1.15830
356.00 1.15804
356.50 1.15786
357.00 1.15775
357.50 1.15740
358.00 1.15711
358.50 1.15689
359.00 1.15675
359.50 1.15674
360.00 1.15682
