phi[deg] B[T]
0.00 1.13733
0.50 1.13688
1.00 1.13652
1.50 1.13624
2.00 1.13603
2.50 1.13580
3.00 1.13554
3.50 1.13535
4.00 1.13524
4.50 1.13522
5.00 1.13442
5.50 1.13344
6.00 1.13255
6.50 1.13173
7.00 1.13099
7.50 1.13033
8.00 1.12975
8.50 1.12927
9.00 1.12787
9.50 1.12652
10.00 1.12523
10.50 1.12401
11.00 1.12286
11.50 1.12178
12.00 1.12077
12.50 1.11982
13.00 1.11895
13.50 1.11812
14.00 1.11660
14.50 1.11469
15.00 1.11284
15.50 1.11105
16.00 1.10933
16.50 1.10767
17.00 1.10607
17.50 1.10453
18.00 1.10312
18.50 1.10193
19.00 1.10007
19.50 1.09725
20.00 1.09447
20.50 1.09174
21.00 1.08905
21.50 1.08641
22.00 1.08382
22.50 1.08135
23.00 1.07893
23.50 1.07435
24.00 1.06865
24.50 1.06297
25.00 1.05733
25.50 1.05173
26.00 1.04616
26.50 1.04094
27.00 1.03641
27.50 1.02943
28.00 1.02128
28.50 1.01289
29.00 1.00451
29.50 0.99616
30.00 0.98783
30.50 0.97953
31.00 0.97124
31.50 0.96299
32.00 0.95475
32.50 0.94661
33.00 0.93706
33.50 0.92710
34.00 0.91716
34.50 0.90722
35.00 0.89731
35.50 0.88741
36.00 0.87755
36.50 0.86770
37.00 0.85708
37.50 0.84649
38.00 0.83593
38.50 0.82541
39.00 0.81482
39.50 0.80319
40.00 0.79225
40.50 0.78133
41.00 0.77043
41.50 0.75930
42.00 0.74693
42.50 0.73569
43.00 0.72444
43.50 0.71267
44.00 0.70021
44.50 0.68774
45.00 0.67522
45.50 0.66245
46.00 0.64985
46.50 0.63721
47.00 0.62425
47.50 0.61117
48.00 0.59806
48.50 0.58410
49.00 0.57145
49.50 0.55876
50.00 0.54603
50.50 0.53116
51.00 0.51565
51.50 0.50010
52.00 0.48693
52.50 0.47444
53.00 0.46187
53.50 0.44815
54.00 0.43421
54.50 0.41848
55.00 0.40178
55.50 0.38500
56.00 0.36813
56.50 0.35122
57.00 0.33822
57.50 0.32318
58.00 0.30323
58.50 0.28630
59.00 0.27012
59.50 0.25385
60.00 0.23751
60.50 0.22108
61.00 0.20457
61.50 0.18799
62.00 0.17103
62.50 0.15202
63.00 0.13891
63.50 0.12879
64.00 0.11866
64.50 0.10853
65.00 0.09840
65.50 0.08826
66.00 0.07812
66.50 0.06869
67.00 0.06283
67.50 0.05772
68.00 0.05261
68.50 0.04749
69.00 0.04237
69.50 0.03725
70.00 0.03402
70.50 0.03130
71.00 0.02858
71.50 0.02586
72.00 0.02314
72.50 0.02043
73.00 0.01808
73.50 0.01674
74.00 0.01540
74.50 0.01404
75.00 0.01268
75.50 0.01132
76.00 0.00997
76.50 0.00861
77.00 0.00795
77.50 0.00734
78.00 0.00672
78.50 0.00610
79.00 0.00548
79.50 0.00486
80.00 0.00424
80.50 0.00384
81.00 0.00353
81.50 0.00325
82.00 0.00296
82.50 0.00268
83.00 0.00240
83.50 0.00221
84.00 0.00203
84.50 0.00185
85.00 0.00171
85.50 0.00158
86.00 0.00149
86.50 0.00141
87.00 0.00134
87.50 0.00126
88.00 0.00120
88.50 0.00117
89.00 0.00113
89.50 0.00110
90.00 0.00107
90.00 0.00107
90.50 0.00110
91.00 0.00113
91.50 0.00117
92.00 0.00120
92.50 0.00126
93.00 0.00134
93.50 0.00141
94.00 0.00149
94.50 0.00158
95.00 0.00171
95.50 0.00185
96.00 0.00203
96.50 0.00221
97.00 0.00240
97.50 0.00268
98.00 0.00296
98.50 0.00325
99.00 0.00353
99.50 0.00384
100.00 0.00424
100.50 0.00486
101.00 0.00548
101.50 0.00610
102.00 0.00672
102.50 0.00734
103.00 0.00795
103.50 0.00861
104.00 0.00997
104.50 0.01132
105.00 0.01268
105.50 0.01404
106.00 0.01540
106.50 0.01674
107.00 0.01808
107.50 0.02043
108.00 0.02314
108.50 0.02586
109.00 0.02858
109.50 0.03130
110.00 0.03402
110.50 0.03725
111.00 0.04237
111.50 0.04749
112.00 0.05261
112.50 0.05772
113.00 0.06283
113.50 0.06869
114.00 0.07812
114.50 0.08826
115.00 0.09840
115.50 0.10853
116.00 0.11866
116.50 0.12879
117.00 0.13891
117.50 0.15202
118.00 0.17103
118.50 0.18799
119.00 0.20457
119.50 0.22108
120.00 0.23751
120.50 0.25385
121.00 0.27012
121.50 0.28630
122.00 0.30323
122.50 0.32318
123.00 0.33822
123.50 0.35122
124.00 0.36813
124.50 0.38500
125.00 0.40178
125.50 0.41848
126.00 0.43421
126.50 0.44815
127.00 0.46187
127.50 0.47444
128.00 0.48693
128.50 0.50010
129.00 0.51565
129.50 0.53116
130.00 0.54603
130.50 0.55876
131.00 0.57145
131.50 0.58410
132.00 0.59806
132.50 0.61117
133.00 0.62425
133.50 0.63721
134.00 0.64985
134.50 0.66245
135.00 0.67522
135.50 0.68774
136.00 0.70021
136.50 0.71267
137.00 0.72444
137.50 0.73569
138.00 0.74693
138.50 0.75930
139.00 0.77043
139.50 0.78133
140.00 0.79225
140.50 0.80319
141.00 0.81482
141.50 0.82541
142.00 0.83593
142.50 0.84649
143.00 0.85708
143.50 0.86770
144.00 0.87755
144.50 0.88741
145.00 0.89731
145.50 0.90722
146.00 0.91716
146.50 0.92710
147.00 0.93706
147.50 0.94661
148.00 0.95475
148.50 0.96299
149.00 0.97124
149.50 0.97953
150.00 0.98783
150.50 0.99616
151.00 1.00451
151.50 1.01289
152.00 1.02128
152.50 1.02943
153.00 1.03641
153.50 1.04094
154.00 1.04616
154.50 1.05173
155.00 1.05733
155.50 1.06297
156.00 1.06865
156.50 1.07435
157.00 1.07893
157.50 1.08135
158.00 1.08382
158.50 1.08641
159.00 1.08905
159.50 1.09174
160.00 1.09447
160.50 1.09725
161.00 1.10007
161.50 1.10193
162.00 1.10312
162.50 1.10453
163.00 1.10607
163.50 1.10767
164.00 1.10933
164.50 1.11105
165.00 1.11284
165.50 1.11469
166.00 1.11660
166.50 1.11812
167.00 1.11895
167.50 1.11982
168.00 1.12077
168.50 1.12178
169.00 1.12286
169.50 1.12401
170.00 1.12523
170.50 1.12652
171.00 1.12787
171.50 1.12927
172.00 1.12975
172.50 1.13033
173.00 1.13099
173.50 1.13173
174.00 1.13255
174.50 1.13344
175.00 1.13442
175.50 1.13522
176.00 1.13524
176.50 1.13535
177.00 1.13554
177.50 1.13580
178.00 1.13603
178.50 1.13624
179.00 1.13652
179.50 1.13688
180.00 1.13733
180.00 1.13733
180.50 1.13688
181.00 1.13652
181.50 1.13624
182.00 1.13603
182.50 1.13580
183.00 1.13554
183.50 1.13535
184.00 1.13524
184.50 1.13522
185.00 1.13442
185.50 1.13344
186.00 1.13255
186.50 1.13173
187.00 1.13099
187.50 1.13033
188.00 1.12975
188.50 1.12927
189.00 1.12787
189.50 1.12652
190.00 1.12523
190.50 1.12401
191.00 1.12286
191.50 1.12178
192.00 1.12077
192.50 1.11982
193.00 1.11895
193.50 1.11812
194.00 1.11660
194.50 1.11469
195.00 1.11284
195.50 1.11105
196.00 1.10933
196.50 1.10767
197.00 1.10607
197.50 1.10453
198.00 1.10312
198.50 1.10193
199.00 1.10007
199.50 1.09725
200.00 1.09447
200.50 1.09174
201.00 1.08905
201.50 1.08641
202.00 1.08382
202.50 1.08135
203.00 1.07893
203.50 1.07435
204.00 1.06865
204.50 1.06297
205.00 1.05733
205.50 1.05173
206.00 1.04616
206.50 1.04094
207.00 1.03641
207.50 1.02943
208.00 1.02128
208.50 1.01289
209.00 1.00451
209.50 0.99616
210.00 0.98783
210.50 0.97953
211.00 0.97124
211.50 0.96299
212.00 0.95475
212.50 0.94661
213.00 0.93706
213.50 0.92710
214.00 0.91716
214.50 0.90722
215.00 0.89731
215.50 0.88741
216.00 0.87755
216.50 0.86770
217.00 0.85708
217.50 0.84649
218.00 0.83593
218.50 0.82541
219.00 0.81482
219.50 0.80319
220.00 0.79225
220.50 0.78133
221.00 0.77043
221.50 0.75930
222.00 0.74693
222.50 0.73569
223.00 0.72444
223.50 0.71267
224.00 0.70021
224.50 0.68774
225.00 0.67522
225.50 0.66245
226.00 0.64985
226.50 0.63721
227.00 0.62425
227.50 0.61117
228.00 0.59806
228.50 0.58410
229.00 0.57145
229.50 0.55876
230.00 0.54603
230.50 0.53116
231.00 0.51565
231.50 0.50010
232.00 0.48693
232.50 0.47444
233.00 0.46187
233.50 0.44815
234.00 0.43421
234.50 0.41848
235.00 0.40178
235.50 0.38500
236.00 0.36813
236.50 0.35122
237.00 0.33822
237.50 0.32318
238.00 0.30323
238.50 0.28630
239.00 0.27012
239.50 0.25385
240.00 0.23751
240.50 0.22108
241.00 0.20457
241.50 0.18799
242.00 0.17103
242.50 0.15202
243.00 0.13891
243.50 0.12879
244.00 0.11866
244.50 0.10853
245.00 0.09840
245.50 0.08826
246.00 0.07812
246.50 0.06869
247.00 0.06283
247.50 0.05772
248.00 0.05261
248.50 0.04749
249.00 0.04237
249.50 0.03725
250.00 0.03402
250.50 0.03130
251.00 0.02858
251.50 0.02586
252.00 0.02314
252.50 0.02043
253.00 0.01808
253.50 0.01674
254.00 0.01540
254.50 0.01404
255.00 0.01268
255.50 0.01132
256.00 0.00997
256.50 0.00861
257.00 0.00795
257.50 0.00734
258.00 0.00672
258.50 0.00610
259.00 0.00548
259.50 0.00486
260.00 0.00424
260.50 0.00384
261.00 0.00353
261.50 0.00325
262.00 0.00296
262.50 0.00268
263.00 0.00240
263.50 0.00221
264.00 0.00203
264.50 0.00185
265.00 0.00171
265.50 0.00158
266.00 0.00149
266.50 0.00141
267.00 0.00134
267.50 0.00126
268.00 0.00120
268.50 0.00117
269.00 0.00113
269.50 0.00110
270.00 0.00107
270.00 0.00107
270.50 0.00110
271.00 0.00113
271.50 0.00117
272.00 0.00120
272.50 0.00126
273.00 0.00134
273.50 0.00141
274.00 0.00149
274.50 0.00158
275.00 0.00171
275.50 0.00185
276.00 0.00203
276.50 0.00221
277.00 0.00240
277.50 0.00268
278.00 0.00296
278.50 0.00325
279.00 0.00353
279.50 0.00384
280.00 0.00424
280.50 0.00486
281.00 0.00548
281.50 0.00610
282.00 0.00672
282.50 0.00734
283.00 0.00795
283.50 0.00861
284.00 0.00997
284.50 0.01132
285.00 0.01268
285.50 0.01404
286.00 0.01540
286.50 0.01674
287.00 0.01808
287.50 0.02043
288.00 0.02314
288.50 0.02586
289.00 0.02858
289.50 0.03130
290.00 0.03402
290.50 0.03725
291.00 0.04237
291.50 0.04749
292.00 0.05261
292.50 0.05772
293.00 0.06283
293.50 0.06869
294.00 0.07812
294.50 0.08826
295.00 0.09840
295.50 0.10853
296.00 0.11866
296.50 0.12879
297.00 0.13891
297.50 0.15202
298.00 0.17103
298.50 0.18799
299.00 0.20457
299.50 0.22108
300.00 0.23751
300.50 0.25385
301.00 0.27012
301.50 0.28630
302.00 0.30323
302.50 0.32318
303.00 0.33822
303.50 0.35122
304.00 0.36813
304.50 0.38500
305.00 0.40178
305.50 0.41848
306.00 0.43421
306.50 0.44815
307.00 0.46187
307.50 0.47444
308.00 0.48693
308.50 0.50010
309.00 0.51565
309.50 0.53116
310.00 0.54603
310.50 0.55876
311.00 0.57145
311.50 0.58410
312.00 0.59806
312.50 0.61117
313.00 0.62425
313.50 0.63721
314.00 0.64985
314.50 0.66245
315.00 0.67522
315.50 0.68774
316.00 0.70021
316.50 0.71267
317.00 0.72444
317.50 0.73569
318.00 0.74693
318.50 0.75930
319.00 0.77043
319.50 0.78133
320.00 0.79225
320.50 0.80319
321.00 0.81482
321.50 0.82541
322.00 0.83593
322.50 0.84649
323.00 0.85708
323.50 0.86770
324.00 0.87755
324.50 0.88741
325.00 0.89731
325.50 0.90722
326.00 0.91716
326.50 0.92710
327.00 0.93706
327.50 0.94661
328.00 0.95475
328.50 0.96299
329.00 0.97124
329.50 0.97953
330.00 0.98783
330.50 0.99616
331.00 1.00451
331.50 1.01289
332.00 1.02128
332.50 1.02943
333.00 1.03641
333.50 1.04094
334.00 1.04616
334.50 1.05173
335.00 1.05733
335.50 1.06297
336.00 1.06865
336.50 1.07435
337.00 1.07893
337.50 1.08135
338.00 1.08382
338.50 1.08641
339.00 1.08905
339.50 1.09174
340.00 1.09447
340.50 1.09725
341.00 1.10007
341.50 1.10193
342.00 1.10312
342.50 1.10453
343.00 1.10607
343.50 1.10767
344.00 1.10933
344.50 1.11105
345.00 1.11284
345.50 1.11469
346.00 1.11660
346.50 1.11812
347.00 1.11895
347.50 1.11982
348.00 1.12077
348.50 1.12178
349.00 1.12286
349.50 1.12401
350.00 1.12523
350.50 1.12652
351.00 1.12787
351.50 1.12927
352.00 1.12975
352.50 1.13033
353.00 1.13099
353.50 1.13173
354.00 1.13255
354.50 1.13344
355.00 1.13442
355.50 1.13522
356.00 1.13524
356.50 1.13535
357.00 1.13554
357.50 1.13580
358.00 1.13603
358.50 1.13624
359.00 1.13652
359.50 1.13688
360.00 1.13733
