phi[deg] B[T]
0.00 2.02915
0.50 2.02839
1.00 2.02776
1.50 2.02727
2.00 2.02691
2.50 2.02731
3.00 2.02625
3.50 2.02596
4.00 2.02584
4.50 2.02585
5.00 2.02600
5.50 2.02609
6.00 2.02549
6.50 2.02503
7.00 2.02470
7.50 2.02451
8.00 2.02400
8.50 2.02327
9.00 2.02141
9.50 2.01907
10.00 2.01741
10.50 2.01702
11.00 2.01673
11.50 2.01654
12.00 2.01509
12.50 2.01372
13.00 2.01077
13.50 2.00736
14.00 2.00404
14.50 2.00081
15.00 1.99757
15.50 1.99439
16.00 1.99131
16.50 1.98667
17.00 1.98091
17.50 1.97523
18.00 1.97048
18.50 1.96592
19.00 1.96144
19.50 1.95456
20.00 1.94588
20.50 1.93725
21.00 1.92971
21.50 1.92233
22.00 1.91501
22.50 1.90427
23.00 1.89254
23.50 1.88070
24.00 1.86692
24.50 1.85317
25.00 1.83944
25.50 1.82386
26.00 1.80776
26.50 1.79157
27.00 1.77540
27.50 1.75902
28.00 1.74121
28.50 1.72276
29.00 1.70315
29.50 1.68357
30.00 1.66402
30.50 1.64449
31.00 1.62349
31.50 1.60337
32.00 1.58326
32.50 1.56316
33.00 1.54305
33.50 1.51898
34.00 1.49439
34.50 1.47087
35.00 1.44794
35.50 1.42500
36.00 1.40200
36.50 1.37574
37.00 1.34946
37.50 1.32342
38.00 1.29902
38.50 1.27425
39.00 1.24902
39.50 1.22285
40.00 1.19666
40.50 1.17044
41.00 1.14505
41.50 1.12044
42.00 1.09495
42.50 1.06943
43.00 1.04389
43.50 1.01812
44.00 0.99361
44.50 0.96922
45.00 0.94478
45.50 0.92001
46.00 0.89520
46.50 0.87031
47.00 0.84524
47.50 0.82075
48.00 0.79652
48.50 0.77224
49.00 0.74904
49.50 0.72511
50.00 0.70103
50.50 0.67688
51.00 0.65328
51.50 0.63057
52.00 0.60780
52.50 0.58496
53.00 0.56211
53.50 0.53954
54.00 0.51722
54.50 0.49599
55.00 0.47470
55.50 0.45334
56.00 0.43192
56.50 0.41102
57.00 0.39163
57.50 0.37257
58.00 0.35345
58.50 0.33427
59.00 0.31544
59.50 0.29673
60.00 0.27796
60.50 0.25914
61.00 0.24023
61.50 0.22286
62.00 0.20880
62.50 0.19471
63.00 0.18059
63.50 0.16642
64.00 0.15222
64.50 0.13920
65.00 0.13009
65.50 0.12096
66.00 0.11182
66.50 0.10267
67.00 0.09350
67.50 0.08433
68.00 0.07768
68.50 0.07219
69.00 0.06669
69.50 0.06119
70.00 0.05568
70.50 0.05030
71.00 0.04663
71.50 0.04350
72.00 0.04036
72.50 0.03715
73.00 0.03394
73.50 0.03073
74.00 0.02763
74.50 0.02560
75.00 0.02383
75.50 0.02207
76.00 0.02030
76.50 0.01854
77.00 0.01678
77.50 0.01552
78.00 0.01437
78.50 0.01337
79.00 0.01247
79.50 0.01158
80.00 0.01068
80.50 0.00979
81.00 0.00890
81.50 0.00821
82.00 0.00762
82.50 0.00721
83.00 0.00680
83.50 0.00638
84.00 0.00595
84.50 0.00551
85.00 0.00509
85.50 0.00490
86.00 0.00471
86.50 0.00452
87.00 0.00431
87.50 0.00409
88.00 0.00399
88.50 0.00390
89.00 0.00382
89.50 0.00374
90.00 0.00365
90.00 0.00365
90.50 0.00374
91.00 0.00382
91.50 0.00390
92.00 0.00399
92.50 0.00409
93.00 0.00431
93.50 0.00452
94.00 0.00471
94.50 0.00490
95.00 0.00509
95.50 0.00551
96.00 0.00595
96.50 0.00638
97.00 0.00680
97.50 0.00721
98.00 0.00762
98.50 0.00821
99.00 0.00890
99.50 0.00979
100.00 0.01068
100.50 0.01158
101.00 0.01247
101.50 0.01337
102.00 0.01437
102.50 0.01552
103.00 0.01678
103.50 0.01854
104.00 0.02030
104.50 0.02207
105.00 0.02383
105.50 0.02560
106.00 0.02763
106.50 0.03073
107.00 0.03394
107.50 0.03715
108.00 0.04036
108.50 0.04350
109.00 0.04663
109.50 0.05030
110.00 0.05568
110.50 0.06119
111.00 0.06669
111.50 0.07219
112.00 0.07768
112.50 0.08433
113.00 0.09350
113.50 0.10267
114.00 0.11182
114.50 0.12096
115.00 0.13009
115.50 0.13920
116.00 0.15222
116.50 0.16642
117.00 0.18059
117.50 0.19471
118.00 0.20880
118.50 0.22286
119.00 0.24023
119.50 0.25914
120.00 0.27796
120.50 0.29673
121.00 0.31544
121.50 0.33427
122.00 0.35345
122.50 0.37257
123.00 0.39163
123.50 0.41102
124.00 0.43192
124.50 0.45334
125.00 0.47470
125.50 0.49599
126.00 0.51722
126.50 0.53954
127.00 0.56211
127.50 0.58496
128.00 0.60780
128.50 0.63057
129.00 0.65328
129.50 0.67688
130.00 0.70103
130.50 0.72511
131.00 0.74904
131.50 0.77224
132.00 0.79652
132.50 0.82075
133.00 0.84524
133.50 0.87031
134.00 0.89520
134.50 0.92001
135.00 0.94478
135.50 0.96922
136.00 0.99361
136.50 1.01812
137.00 1.04389
137.50 1.06943
138.00 1.09495
138.50 1.12044
139.00 1.14505
139.50 1.17044
140.00 1.19666
140.50 1.22285
141.00 1.24902
141.50 1.27425
142.00 1.29902
142.50 1.32342
143.00 1.34946
143.50 1.37574
144.00 1.40200
144.50 1.42500
145.00 1.44794
145.50 1.47087
146.00 1.49439
146.50 1.51898
147.00 1.54305
147.50 1.56316
148.00 1.58326
148.50 1.60337
149.00 1.62349
149.50 1.64449
150.00 1.66402
150.50 1.68357
151.00 1.70315
151.50 1.72276
152.00 1.74121
152.50 1.75902
153.00 1.77540
153.50 1.79157
154.00 1.80776
154.50 1.82386
155.00 1.83944
155.50 1.85317
156.00 1.86692
156.50 1.88070
157.00 1.89254
157.50 1.90427
158.00 1.91501
158.50 1.92233
159.00 1.92971
159.50 1.93725
160.00 1.94588
160.50 1.95456
161.00 1.96144
161.50 1.96592
162.00 1.97048
162.50 1.97523
163.00 1.98091
163.50 1.98667
164.00 1.99131
164.50 1.99439
165.00 1.99757
165.50 2.00081
166.00 2.00404
166.50 2.00736
167.00 2.01077
167.50 2.01372
168.00 2.01509
168.50 2.01654
169.00 2.01673
169.50 2.01702
170.00 2.01741
170.50 2.01907
171.00 2.02141
171.50 2.02327
172.00 2.02400
172.50 2.02451
173.00 2.02470
173.50 2.02503
174.00 2.02549
174.50 2.02609
175.00 2.02600
175.50 2.02585
176.00 2.02584
176.50 2.02596
177.00 2.02625
177.50 2.02731
178.00 2.02691
178.50 2.02727
179.00 2.02776
179.50 2.02839
180.00 2.02915
180.00 2.02915
180.50 2.02839
181.00 2.02776
181.50 2.02727
182.00 2.02691
182.50 2.02731
183.00 2.02625
183.50 2.02596
184.00 2.02584
184.50 2.02585
185.00 2.02600
185.50 2.02609
186.00 2.02549
186.50 2.02503
187.00 2.02470
187.50 2.02451
188.00 2.02400
188.50 2.02327
189.00 2.02141
189.50 2.01907
190.00 2.01741
190.50 2.01702
191.00 2.01673
191.50 2.01654
192.00 2.01509
192.50 2.01372
193.00 2.01077
193.50 2.00736
194.00 2.00404
194.50 2.00081
195.00 1.99757
195.50 1.99439
196.00 1.99131
196.50 1.98667
197.00 1.98091
197.50 1.97523
198.00 1.97048
198.50 1.96592
199.00 1.96144
199.50 1.95456
200.00 1.94588
200.50 1.93725
201.00 1.92971
201.50 1.92233
202.00 1.91501
202.50 1.90427
203.00 1.89254
203.50 1.88070
204.00 1.86692
204.50 1.85317
205.00 1.83944
205.50 1.82386
206.00 1.80776
206.50 1.79157
207.00 1.77540
207.50 1.75902
208.00 1.74121
208.50 1.72276
209.00 1.70315
209.50 1.68357
210.00 1.66402
210.50 1.64449
211.00 1.62349
211.50 1.60337
212.00 1.58326
212.50 1.56316
213.00 1.54305
213.50 1.51898
214.00 1.49439
214.50 1.47087
215.00 1.44794
215.50 1.42500
216.00 1.40200
216.50 1.37574
217.00 1.34946
217.50 1.32342
218.00 1.29902
218.50 1.27425
219.00 1.24902
219.50 1.22285
220.00 1.19666
220.50 1.17044
221.00 1.14505
221.50 1.12044
222.00 1.09495
222.50 1.06943
223.00 1.04389
223.50 1.01812
224.00 0.99361
224.50 0.96922
225.00 0.94478
225.50 0.92001
226.00 0.89520
226.50 0.87031
227.00 0.84524
227.50 0.82075
228.00 0.79652
228.50 0.77224
229.00 0.74904
229.50 0.72511
230.00 0.70103
230.50 0.67688
231.00 0.65328
231.50 0.63057
232.00 0.60780
232.50 0.58496
233.00 0.56211
233.50 0.53954
234.00 0.51722
234.50 0.49599
235.00 0.47470
235.50 0.45334
236.00 0.43192
236.50 0.41102
237.00 0.39163
237.50 0.37257
238.00 0.35345
238.50 0.33427
239.00 0.31544
239.50 0.29673
240.00 0.27796
240.50 0.25914
241.00 0.24023
241.50 0.22286
242.00 0.20880
242.50 0.19471
243.00 0.18059
243.50 0.16642
244.00 0.15222
244.50 0.13920
245.00 0.13009
245.50 0.12096
246.00 0.11182
246.50 0.10267
247.00 0.09350
247.50 0.08433
248.00 0.07768
248.50 0.07219
249.00 0.06669
249.50 0.06119
250.00 0.05568
250.50 0.05030
251.00 0.04663
251.50 0.04350
252.00 0.04036
252.50 0.03715
253.00 0.03394
253.50 0.03073
254.00 0.02763
254.50 0.02560
255.00 0.02383
255.50 0.02207
256.00 0.02030
256.50 0.01854
257.00 0.01678
257.50 0.01552
258.00 0.01437
258.50 0.01337
259.00 0.01247
259.50 0.01158
260.00 0.01068
260.50 0.00979
261.00 0.00890
261.50 0.00821
262.00 0.00762
262.50 0.00721
263.00 0.00680
263.50 0.00638
264.00 0.00595
264.50 0.00551
265.00 0.00509
265.50 0.00490
266.00 0.00471
266.50 0.00452
267.00 0.00431
267.50 0.00409
268.00 0.00399
268.50 0.00390
269.00 0.00382
269.50 0.00374
270.00 0.00365
270.00 0.00365
270.50 0.00374
271.00 0.00382
271.50 0.00390
272.00 0.00399
272.50 0.00409
273.00 0.00431
273.50 0.00452
274.00 0.00471
274.50 0.00490
275.00 0.00509
275.50 0.00551
276.00 0.00595
276.50 0.00638
277.00 0.00680
277.50 0.00721
278.00 0.00762
278.50 0.00821
279.00 0.00890
279.50 0.00979
280.00 0.01068
280.50 0.01158
281.00 0.01247
281.50 0.01337
282.00 0.01437
282.50 0.01552
283.00 0.01678
283.50 0.01854
284.00 0.02030
284.50 0.02207
285.00 0.02383
285.50 0.02560
286.00 0.02763
286.50 0.03073
287.00 0.03394
287.50 0.03715
288.00 0.04036
288.50 0.04350
289.00 0.04663
289.50 0.05030
290.00 0.05568
290.50 0.06119
291.00 0.06669
291.50 0.07219
292.00 0.07768
292.50 0.08433
293.00 0.09350
293.50 0.10267
294.00 0.11182
294.50 0.12096
295.00 0.13009
295.50 0.13920
296.00 0.15222
296.50 0.16642
297.00 0.18059
297.50 0.19471
298.00 0.20880
298.50 0.22286
299.00 0.24023
299.50 0.25914
300.00 0.27796
300.50 0.29673
301.00 0.31544
301.50 0.33427
302.00 0.35345
302.50 0.37257
303.00 0.39163
303.50 0.41102
304.00 0.43192
304.50 0.45334
305.00 0.47470
305.50 0.49599
306.00 0.51722
306.50 0.53954
307.00 0.56211
307.50 0.58496
308.00 0.60780
308.50 0.63057
309.00 0.65328
309.50 0.67688
310.00 0.70103
310.50 0.72511
311.00 0.74904
311.50 0.77224
312.00 0.79652
312.50 0.82075
313.00 0.84524
313.50 0.87031
314.00 0.89520
314.50 0.92001
315.00 0.94478
315.50 0.96922
316.00 0.99361
316.50 1.01812
317.00 1.04389
317.50 1.06943
318.00 1.09495
318.50 1.12044
319.00 1.14505
319.50 1.17044
320.00 1.19666
320.50 1.22285
321.00 1.24902
321.50 1.27425
322.00 1.29902
322.50 1.32342
323.00 1.34946
323.50 1.37574
324.00 1.40200
324.50 1.42500
325.00 1.44794
325.50 1.47087
326.00 1.49439
326.50 1.51898
327.00 1.54305
327.50 1.56316
328.00 1.58326
328.50 1.60337
329.00 1.62349
329.50 1.64449
330.00 1.66402
330.50 1.68357
331.00 1.70315
331.50 1.72276
332.00 1.74121
332.50 1.75902
333.00 1.77540
333.50 1.79157
334.00 1.80776
334.50 1.82386
335.00 1.83944
335.50 1.85317
336.00 1.86692
336.50 1.88070
337.00 1.89254
337.50 1.90427
338.00 1.91501
338.50 1.92233
339.00 1.92971
339.50 1.93725
340.00 1.94588
340.50 1.95456
341.00 1.96144
341.50 1.96592
342.00 1.97048
342.50 1.97523
343.00 1.98091
343.50 1.98667
344.00 1.99131
344.50 1.99439
345.00 1.99757
345.50 2.00081
346.00 2.00404
346.50 2.00736
347.00 2.01077
347.50 2.01372
348.00 2.01509
348.50 2.01654
349.00 2.01673
349.50 2.01702
350.00 2.01741
350.50 2.01907
351.00 2.02141
351.50 2.02327
352.00 2.02400
352.50 2.02451
353.00 2.02470
353.50 2.02503
354.00 2.02549
354.50 2.02609
355.00 2.02600
355.50 2.02585
356.00 2.02584
356.50 2.02596
357.00 2.02625
357.50 2.02731
358.00 2.02691
358.50 2.02727
359.00 2.02776
359.50 2.02839
360.00 2.02915
