phi[deg] B[T]
0.00 1.10582
0.50 1.10551
1.00 1.10523
1.50 1.10500
2.00 1.10481
2.50 1.10486
3.00 1.10483
3.50 1.10469
4.00 1.10455
4.50 1.10441
5.00 1.10430
5.50 1.10423
6.00 1.10380
6.50 1.10304
7.00 1.10268
7.50 1.10301
8.00 1.10336
8.50 1.10374
9.00 1.10415
9.50 1.10451
10.00 1.10410
10.50 1.10373
11.00 1.10436
11.50 1.10515
12.00 1.10597
12.50 1.10680
13.00 1.10748
13.50 1.10816
14.00 1.10918
14.50 1.11022
15.00 1.11127
15.50 1.11240
16.00 1.11366
16.50 1.11492
17.00 1.11620
17.50 1.11710
18.00 1.11798
18.50 1.11872
19.00 1.11943
19.50 1.12016
20.00 1.12089
20.50 1.12163
21.00 1.12209
21.50 1.12178
22.00 1.11955
22.50 1.11717
23.00 1.11475
23.50 1.11234
24.00 1.10993
24.50 1.10751
25.00 1.10510
25.50 1.10269
26.00 1.10028
26.50 1.09499
27.00 1.08903
27.50 1.08305
28.00 1.07704
28.50 1.07102
29.00 1.06498
29.50 1.05891
30.00 1.04745
30.50 1.03561
31.00 1.02620
31.50 1.01672
32.00 1.00719
32.50 0.99759
33.00 0.98362
33.50 0.96701
34.00 0.95031
34.50 0.93353
35.00 0.91905
35.50 0.90451
36.00 0.88580
36.50 0.86664
37.00 0.84736
37.50 0.82798
38.00 0.80768
38.50 0.78661
39.00 0.76544
39.50 0.74144
40.00 0.71679
40.50 0.69204
41.00 0.66717
41.50 0.64220
42.00 0.61837
42.50 0.59297
43.00 0.56937
43.50 0.54570
44.00 0.52195
44.50 0.49812
45.00 0.47422
45.50 0.45142
46.00 0.42855
46.50 0.40561
47.00 0.38260
47.50 0.35953
48.00 0.33815
48.50 0.31962
49.00 0.30146
49.50 0.28327
50.00 0.26505
50.50 0.24679
51.00 0.23323
51.50 0.22028
52.00 0.20739
52.50 0.19458
53.00 0.18176
53.50 0.16893
54.00 0.15611
54.50 0.14828
55.00 0.14045
55.50 0.13261
56.00 0.12477
56.50 0.11693
57.00 0.10909
57.50 0.10106
58.00 0.09300
58.50 0.08494
59.00 0.07976
59.50 0.07493
60.00 0.07108
60.50 0.06727
61.00 0.06345
61.50 0.05963
62.00 0.05580
62.50 0.05197
63.00 0.04814
63.50 0.04431
64.00 0.04073
64.50 0.03732
65.00 0.03520
65.50 0.03335
66.00 0.03153
66.50 0.02981
67.00 0.02808
67.50 0.02635
68.00 0.02463
68.50 0.02290
69.00 0.02118
69.50 0.01946
70.00 0.01774
70.50 0.01662
71.00 0.01582
71.50 0.01502
72.00 0.01422
72.50 0.01343
73.00 0.01263
73.50 0.01183
74.00 0.01101
74.50 0.01019
75.00 0.00938
75.50 0.00857
76.00 0.00803
76.50 0.00764
77.00 0.00726
77.50 0.00688
78.00 0.00650
78.50 0.00611
79.00 0.00573
79.50 0.00535
80.00 0.00500
80.50 0.00466
81.00 0.00432
81.50 0.00399
82.00 0.00380
82.50 0.00366
83.00 0.00351
83.50 0.00337
84.00 0.00323
84.50 0.00309
85.00 0.00295
85.50 0.00279
86.00 0.00263
86.50 0.00259
87.00 0.00254
87.50 0.00248
88.00 0.00242
88.50 0.00236
89.00 0.00230
89.50 0.00225
90.00 0.00219
90.00 0.00219
90.50 0.00225
91.00 0.00230
91.50 0.00236
92.00 0.00242
92.50 0.00248
93.00 0.00254
93.50 0.00259
94.00 0.00263
94.50 0.00279
95.00 0.00295
95.50 0.00309
96.00 0.00323
96.50 0.00337
97.00 0.00351
97.50 0.00366
98.00 0.00380
98.50 0.00399
99.00 0.00432
99.50 0.00466
100.00 0.00500
100.50 0.00535
101.00 0.00573
101.50 0.00611
102.00 0.00650
102.50 0.00688
103.00 0.00726
103.50 0.00764
104.00 0.00803
104.50 0.00857
105.00 0.00938
105.50 0.01019
106.00 0.01101
106.50 0.01183
107.00 0.01263
107.50 0.01343
108.00 0.01422
108.50 0.01502
109.00 0.01582
109.50 0.01662
110.00 0.01774
110.50 0.01946
111.00 0.02118
111.50 0.02290
112.00 0.02463
112.50 0.02635
113.00 0.02808
113.50 0.02981
114.00 0.03153
114.50 0.03335
115.00 0.03520
115.50 0.03732
116.00 0.04073
116.50 0.04431
117.00 0.04814
117.50 0.05197
118.00 0.05580
118.50 0.05963
119.00 0.06345
119.50 0.06727
120.00 0.07108
120.50 0.07493
121.00 0.07976
121.50 0.08494
122.00 0.09300
122.50 0.10106
123.00 0.10909
123.50 0.11693
124.00 0.12477
124.50 0.13261
125.00 0.14045
125.50 0.14828
126.00 0.15611
126.50 0.16893
127.00 0.18176
127.50 0.19458
128.00 0.20739
128.50 0.22028
129.00 0.23323
129.50 0.24679
130.00 0.26505
130.50 0.28327
131.00 0.30146
131.50 0.31962
132.00 0.33815
132.50 0.35953
133.00 0.38260
133.50 0.40561
134.00 0.42855
134.50 0.45142
135.00 0.47422
135.50 0.49812
136.00 0.52195
136.50 0.54570
137.00 0.56937
137.50 0.59297
138.00 0.61837
138.50 0.64220
139.00 0.66717
139.50 0.69204
140.00 0.71679
140.50 0.74144
141.00 0.76544
141.50 0.78661
142.00 0.80768
142.50 0.82798
143.00 0.84736
143.50 0.86664
144.00 0.88580
144.50 0.90451
145.00 0.91905
145.50 0.93353
146.00 0.95031
146.50 0.96701
147.00 0.98362
147.50 0.99759
148.00 1.00719
148.50 1.01672
149.00 1.02620
149.50 1.03561
150.00 1.04745
150.50 1.05891
151.00 1.06498
151.50 1.07102
152.00 1.07704
152.50 1.08305
153.00 1.08903
153.50 1.09499
154.00 1.10028
154.50 1.10269
155.00 1.10510
155.50 1.10751
156.00 1.10993
156.50 1.11234
157.00 1.11475
157.50 1.11717
158.00 1.11955
158.50 1.12178
159.00 1.12209
159.50 1.12163
160.00 1.12089
160.50 1.12016
161.00 1.11943
161.50 1.11872
162.00 1.11798
162.50 1.11710
163.00 1.11620
163.50 1.11492
164.00 1.11366
164.50 1.11240
165.00 1.11127
165.50 1.11022
166.00 1.10918
166.50 1.10816
167.00 1.10748
167.50 1.10680
168.00 1.10597
168.50 1.10515
169.00 1.10436
169.50 1.10373
170.00 1.10410
170.50 1.10451
171.00 1.10415
171.50 1.10374
172.00 1.10336
172.50 1.10301
173.00 1.10268
173.50 1.10304
174.00 1.10380
174.50 1.10423
175.00 1.10430
175.50 1.10441
176.00 1.10455
176.50 1.10469
177.00 1.10483
177.50 1.10486
178.00 1.10481
178.50 1.10500
179.00 1.10523
179.50 1.10551
180.00 1.10582
180.00 1.10582
180.50 1.10551
181.00 1.10523
181.50 1.10500
182.00 1.10481
182.50 1.10486
183.00 1.10483
183.50 1.10469
184.00 1.10455
184.50 1.10441
185.00 1.10430
185.50 1.10423
186.00 1.10380
186.50 1.10304
187.00 1.10268
187.50 1.10301
188.00 1.10336
188.50 1.10374
189.00 1.10415
189.50 1.10451
190.00 1.10410
190.50 1.10373
191.00 1.10436
191.50 1.10515
192.00 1.10597
192.50 1.10680
193.00 1.10748
193.50 1.10816
194.00 1.10918
194.50 1.11022
195.00 1.11127
195.50 1.11240
196.00 1.11366
196.50 1.11492
197.00 1.11620
197.50 1.11710
198.00 1.11798
198.50 1.11872
199.00 1.11943
199.50 1.12016
200.00 1.12089
200.50 1.12163
201.00 1.12209
201.50 1.12178
202.00 1.11955
202.50 1.11717
203.00 1.11475
203.50 1.11234
204.00 1.10993
204.50 1.10751
205.00 1.10510
205.50 1.10269
206.00 1.10028
206.50 1.09499
207.00 1.08903
207.50 1.08305
208.00 1.07704
208.50 1.07102
209.00 1.06498
209.50 1.05891
210.00 1.04745
210.50 1.03561
211.00 1.02620
211.50 1.01672
212.00 1.00719
212.50 0.99759
213.00 0.98362
213.50 0.96701
214.00 0.95031
214.50 0.93353
215.00 0.91905
215.50 0.90451
216.00 0.88580
216.50 0.86664
217.00 0.84736
217.50 0.82798
218.00 0.80768
218.50 0.78661
219.00 0.76544
219.50 0.74144
220.00 0.71679
220.50 0.69204
221.00 0.66717
221.50 0.64220
222.00 0.61837
222.50 0.59297
223.00 0.56937
223.50 0.54570
224.00 0.52195
224.50 0.49812
225.00 0.47422
225.50 0.45142
226.00 0.42855
226.50 0.40561
227.00 0.38260
227.50 0.35953
228.00 0.33815
228.50 0.31962
229.00 0.30146
229.50 0.28327
230.00 0.26505
230.50 0.24679
231.00 0.23323
231.50 0.22028
232.00 0.20739
232.50 0.19458
233.00 0.18176
233.50 0.16893
234.00 0.15611
234.50 0.14828
235.00 0.14045
235.50 0.13261
236.00 0.12477
236.50 0.11693
237.00 0.10909
237.50 0.10106
238.00 0.09300
238.50 0.08494
239.00 0.07976
239.50 0.07493
240.00 0.07108
240.50 0.06727
241.00 0.06345
241.50 0.05963
242.00 0.05580
242.50 0.05197
243.00 0.04814
243.50 0.04431
244.00 0.04073
244.50 0.03732
245.00 0.03520
245.50 0.03335
246.00 0.03153
246.50 0.02981
247.00 0.02808
247.50 0.02635
248.00 0.02463
248.50 0.02290
249.00 0.02118
249.50 0.01946
250.00 0.01774
250.50 0.01662
251.00 0.01582
251.50 0.01502
252.00 0.01422
252.50 0.01343
253.00 0.01263
253.50 0.01183
254.00 0.01101
254.50 0.01019
255.00 0.00938
255.50 0.00857
256.00 0.00803
256.50 0.00764
257.00 0.00726
257.50 0.00688
258.00 0.00650
258.50 0.00611
259.00 0.00573
259.50 0.00535
260.00 0.00500
260.50 0.00466
261.00 0.00432
261.50 0.00399
262.00 0.00380
262.50 0.00366
263.00 0.00351
263.50 0.00337
264.00 0.00323
264.50 0.00309
265.00 0.00295
265.50 0.00279
266.00 0.00263
266.50 0.00259
267.00 0.00254
267.50 0.00248
268.00 0.00242
268.50 0.00236
269.00 0.00230
269.50 0.00225
270.00 0.00219
270.00 0.00219
270.50 0.00225
271.00 0.00230
271.50 0.00236
272.00 0.00242
272.50 0.00248
273.00 0.00254
273.50 0.00259
274.00 0.00263
274.50 0.00279
275.00 0.00295
275.50 0.00309
276.00 0.00323
276.50 0.00337
277.00 0.00351
277.50 0.00366
278.00 0.00380
278.50 0.00399
279.00 0.00432
279.50 0.00466
280.00 0.00500
280.50 0.00535
281.00 0.00573
281.50 0.00611
282.00 0.00650
282.50 0.00688
283.00 0.00726
283.50 0.00764
284.00 0.00803
284.50 0.00857
285.00 0.00938
285.50 0.01019
286.00 0.01101
286.50 0.01183
287.00 0.01263
287.50 0.01343
288.00 0.01422
288.50 0.01502
289.00 0.01582
289.50 0.01662
290.00 0.01774
290.50 0.01946
291.00 0.02118
291.50 0.02290
292.00 0.02463
292.50 0.02635
293.00 0.02808
293.50 0.02981
294.00 0.03153
294.50 0.03335
295.00 0.03520
295.50 0.03732
296.00 0.04073
296.50 0.04431
297.00 0.04814
297.50 0.05197
298.00 0.05580
298.50 0.05963
299.00 0.06345
299.50 0.06727
300.00 0.07108
300.50 0.07493
301.00 0.07976
301.50 0.08494
302.00 0.09300
302.50 0.10106
303.00 0.10909
303.50 0.11693
304.00 0.12477
304.50 0.13261
305.00 0.14045
305.50 0.14828
306.00 0.15611
306.50 0.16893
307.00 0.18176
307.50 0.19458
308.00 0.20739
308.50 0.22028
309.00 0.23323
309.50 0.24679
310.00 0.26505
310.50 0.28327
311.00 0.30146
311.50 0.31962
312.00 0.33815
312.50 0.35953
313.00 0.38260
313.50 0.40561
314.00 0.42855
314.50 0.45142
315.00 0.47422
315.50 0.49812
316.00 0.52195
316.50 0.54570
317.00 0.56937
317.50 0.59297
318.00 0.61837
318.50 0.64220
319.00 0.66717
319.50 0.69204
320.00 0.71679
320.50 0.74144
321.00 0.76544
321.50 0.78661
322.00 0.80768
322.50 0.82798
323.00 0.84736
323.50 0.86664
324.00 0.88580
324.50 0.90451
325.00 0.91905
325.50 0.93353
326.00 0.95031
326.50 0.96701
327.00 0.98362
327.50 0.99759
328.00 1.00719
328.50 1.01672
329.00 1.02620
329.50 1.03561
330.00 1.04745
330.50 1.05891
331.00 1.06498
331.50 1.07102
332.00 1.07704
332.50 1.08305
333.00 1.08903
333.50 1.09499
334.00 1.10028
334.50 1.10269
335.00 1.10510
335.50 1.10751
336.00 1.10993
336.50 1.11234
337.00 1.11475
337.50 1.11717
338.00 1.11955
338.50 1.12178
339.00 1.12209
339.50 1.12163
340.00 1.12089
340.50 1.12016
341.00 1.11943
341.50 1.11872
342.00 1.11798
342.50 1.11710
343.00 1.11620
343.50 1.11492
344.00 1.11366
344.50 1.11240
345.00 1.11127
345.50 1.11022
346.00 1.10918
346.50 1.10816
347.00 1.10748
347.50 1.10680
348.00 1.10597
348.50 1.10515
349.00 1.10436
349.50 1.10373
350.00 1.10410
350.50 1.10451
351.00 1.10415
351.50 1.10374
352.00 1.10336
352.50 1.10301
353.00 1.10268
353.50 1.10304
354.00 1.10380
354.50 1.10423
355.00 1.10430
355.50 1.10441
356.00 1.10455
356.50 1.10469
357.00 1.10483
357.50 1.10486
358.00 1.10481
358.50 1.10500
359.00 1.10523
359.50 1.10551
360.00 1.10582
