phi[deg] B[T]
0.00 1.63561
0.50 1.63558
1.00 1.63567
1.50 1.63589
2.00 1.63624
2.50 1.63672
3.00 1.63745
3.50 1.63838
4.00 1.63944
4.50 1.64061
5.00 1.64190
5.50 1.64338
6.00 1.64509
6.50 1.64692
7.00 1.64887
7.50 1.64986
8.00 1.65056
8.50 1.65163
9.00 1.65298
9.50 1.65444
10.00 1.65601
10.50 1.65731
11.00 1.65590
11.50 1.65458
12.00 1.65462
12.50 1.65483
13.00 1.65511
13.50 1.65519
14.00 1.65300
14.50 1.65089
15.00 1.64886
15.50 1.64623
16.00 1.64268
16.50 1.63920
17.00 1.63573
17.50 1.63142
18.00 1.62718
18.50 1.62302
19.00 1.61892
19.50 1.61490
20.00 1.60996
20.50 1.60243
21.00 1.59523
21.50 1.58811
22.00 1.58103
22.50 1.57400
23.00 1.56703
23.50 1.56010
24.00 1.54835
24.50 1.53625
25.00 1.52400
25.50 1.51145
26.00 1.49892
26.50 1.48644
27.00 1.47399
27.50 1.46158
28.00 1.44581
28.50 1.42956
29.00 1.41334
29.50 1.39798
30.00 1.38381
30.50 1.36964
31.00 1.35550
31.50 1.34062
32.00 1.32430
32.50 1.30799
33.00 1.29171
33.50 1.27372
34.00 1.25486
34.50 1.23600
35.00 1.21714
35.50 1.19919
36.00 1.18133
36.50 1.16348
37.00 1.14391
37.50 1.12389
38.00 1.10388
38.50 1.08387
39.00 1.06320
39.50 1.04343
40.00 1.02392
40.50 1.00441
41.00 0.98490
41.50 0.96387
42.00 0.94385
42.50 0.92505
43.00 0.90623
43.50 0.88679
44.00 0.86722
44.50 0.84763
45.00 0.82755
45.50 0.80703
46.00 0.78792
46.50 0.76875
47.00 0.74946
47.50 0.72974
48.00 0.70997
48.50 0.69001
49.00 0.66943
49.50 0.64991
50.00 0.63035
50.50 0.61073
51.00 0.59107
51.50 0.57036
52.00 0.55050
52.50 0.53155
53.00 0.51253
53.50 0.49345
54.00 0.47527
54.50 0.45738
55.00 0.43943
55.50 0.42080
56.00 0.40168
56.50 0.38249
57.00 0.36380
57.50 0.34515
58.00 0.32643
58.50 0.30766
59.00 0.28882
59.50 0.27319
60.00 0.25774
60.50 0.24224
61.00 0.22625
61.50 0.20992
62.00 0.19356
62.50 0.17716
63.00 0.16256
63.50 0.15042
64.00 0.13824
64.50 0.12604
65.00 0.11470
65.50 0.10518
66.00 0.09662
66.50 0.08920
67.00 0.08178
67.50 0.07435
68.00 0.06692
68.50 0.06155
69.00 0.05715
69.50 0.05274
70.00 0.04834
70.50 0.04395
71.00 0.03998
71.50 0.03601
72.00 0.03204
72.50 0.02913
73.00 0.02716
73.50 0.02520
74.00 0.02323
74.50 0.02128
75.00 0.01933
75.50 0.01738
76.00 0.01543
76.50 0.01408
77.00 0.01303
77.50 0.01199
78.00 0.01094
78.50 0.00997
79.00 0.00915
79.50 0.00834
80.00 0.00753
80.50 0.00690
81.00 0.00637
81.50 0.00583
82.00 0.00534
82.50 0.00496
83.00 0.00458
83.50 0.00420
84.00 0.00385
84.50 0.00358
85.00 0.00330
85.50 0.00314
86.00 0.00298
86.50 0.00283
87.00 0.00268
87.50 0.00252
88.00 0.00244
88.50 0.00237
89.00 0.00230
89.50 0.00223
90.00 0.00217
90.00 0.00217
90.50 0.00223
91.00 0.00230
91.50 0.00237
92.00 0.00244
92.50 0.00252
93.00 0.00268
93.50 0.00283
94.00 0.00298
94.50 0.00314
95.00 0.00330
95.50 0.00358
96.00 0.00385
96.50 0.00420
97.00 0.00458
97.50 0.00496
98.00 0.00534
98.50 0.00583
99.00 0.00637
99.50 0.00690
100.00 0.00753
100.50 0.00834
101.00 0.00915
101.50 0.00997
102.00 0.01094
102.50 0.01199
103.00 0.01303
103.50 0.01408
104.00 0.01543
104.50 0.01738
105.00 0.01933
105.50 0.02128
106.00 0.02323
106.50 0.02520
107.00 0.02716
107.50 0.02913
108.00 0.03204
108.50 0.03601
109.00 0.03998
109.50 0.04395
110.00 0.04834
110.50 0.05274
111.00 0.05715
111.50 0.06155
112.00 0.06692
112.50 0.07435
113.00 0.08178
113.50 0.08920
114.00 0.09662
114.50 0.10518
115.00 0.11470
115.50 0.12604
116.00 0.13824
116.50 0.15042
117.00 0.16256
117.50 0.17716
118.00 0.19356
118.50 0.20992
119.00 0.22625
119.50 0.24224
120.00 0.25774
120.50 0.27319
121.00 0.28882
121.50 0.30766
122.00 0.32643
122.50 0.34515
123.00 0.36380
123.50 0.38249
124.00 0.40168
124.50 0.42080
125.00 0.43943
125.50 0.45738
126.00 0.47527
126.50 0.49345
127.00 0.51253
127.50 0.53155
128.00 0.55050
128.50 0.57036
129.00 0.59107
129.50 0.61073
130.00 0.63035
130.50 0.64991
131.00 0.66943
131.50 0.69001
132.00 0.70997
132.50 0.72974
133.00 0.74946
133.50 0.76875
134.00 0.78792
134.50 0.80703
135.00 0.82755
135.50 0.84763
136.00 0.86722
136.50 0.88679
137.00 0.90623
137.50 0.92505
138.00 0.94385
138.50 0.96387
139.00 0.98490
139.50 1.00441
140.00 1.02392
140.50 1.04343
141.00 1.06320
141.50 1.08387
142.00 1.10388
142.50 1.12389
143.00 1.14391
143.50 1.16348
144.00 1.18133
144.50 1.19919
145.00 1.21714
145.50 1.23600
146.00 1.25486
146.50 1.27372
147.00 1.29171
147.50 1.30799
148.00 1.32430
148.50 1.34062
149.00 1.35550
149.50 1.36964
150.00 1.38381
150.50 1.39798
151.00 1.41334
151.50 1.42956
152.00 1.44581
152.50 1.46158
153.00 1.47399
153.50 1.48644
154.00 1.49892
154.50 1.51145
155.00 1.52400
155.50 1.53625
156.00 1.54835
156.50 1.56010
157.00 1.56703
157.50 1.57400
158.00 1.58103
158.50 1.58811
159.00 1.59523
159.50 1.60243
160.00 1.60996
160.50 1.61490
161.00 1.61892
161.50 1.62302
162.00 1.62718
162.50 1.63142
163.00 1.63573
163.50 1.63920
164.00 1.64268
164.50 1.64623
165.00 1.64886
165.50 1.65089
166.00 1.65300
166.50 1.65519
167.00 1.65511
167.50 1.65483
168.00 1.65462
168.50 1.65458
169.00 1.65590
169.50 1.65731
170.00 1.65601
170.50 1.65444
171.00 1.65298
171.50 1.65163
172.00 1.65056
172.50 1.64986
173.00 1.64887
173.50 1.64692
174.00 1.64509
174.50 1.64338
175.00 1.64190
175.50 1.64061
176.00 1.63944
176.50 1.63838
177.00 1.63745
177.50 1.63672
178.00 1.63624
178.50 1.63589
179.00 1.63567
179.50 1.63558
180.00 1.63561
180.00 1.63561
180.50 1.63558
181.00 1.63567
181.50 1.63589
182.00 1.63624
182.50 1.63672
183.00 1.63745
183.50 1.63838
184.00 1.63944
184.50 1.64061
185.00 1.64190
185.50 1.64338
186.00 1.64509
186.50 1.64692
187.00 1.64887
187.50 1.64986
188.00 1.65056
188.50 1.65163
189.00 1.65298
189.50 1.65444
190.00 1.65601
190.50 1.65731
191.00 1.65590
191.50 1.65458
192.00 1.65462
192.50 1.65483
193.00 1.65511
193.50 1.65519
194.00 1.65300
194.50 1.65089
195.00 1.64886
195.50 1.64623
196.00 1.64268
196.50 1.63920
197.00 1.63573
197.50 1.63142
198.00 1.62718
198.50 1.62302
199.00 1.61892
199.50 1.61490
200.00 1.60996
200.50 1.60243
201.00 1.59523
201.50 1.58811
202.00 1.58103
202.50 1.57400
203.00 1.56703
203.50 1.56010
204.00 1.54835
204.50 1.53625
205.00 1.52400
205.50 1.51145
206.00 1.49892
206.50 1.48644
207.00 1.47399
207.50 1.46158
208.00 1.44581
208.50 1.42956
209.00 1.41334
209.50 1.39798
210.00 1.38381
210.50 1.36964
211.00 1.35550
211.50 1.34062
212.00 1.32430
212.50 1.30799
213.00 1.29171
213.50 1.27372
214.00 1.25486
214.50 1.23600
215.00 1.21714
215.50 1.19919
216.00 1.18133
216.50 1.16348
217.00 1.14391
217.50 1.12389
218.00 1.10388
218.50 1.08387
219.00 1.06320
219.50 1.04343
220.00 1.02392
220.50 1.00441
221.00 0.98490
221.50 0.96387
222.00 0.94385
222.50 0.92505
223.00 0.90623
223.50 0.88679
224.00 0.86722
224.50 0.84763
225.00 0.82755
225.50 0.80703
226.00 0.78792
226.50 0.76875
227.00 0.74946
227.50 0.72974
228.00 0.70997
228.50 0.69001
229.00 0.66943
229.50 0.64991
230.00 0.63035
230.50 0.61073
231.00 0.59107
231.50 0.57036
232.00 0.55050
232.50 0.53155
233.00 0.51253
233.50 0.49345
234.00 0.47527
234.50 0.45738
235.00 0.43943
235.50 0.42080
236.00 0.40168
236.50 0.38249
237.00 0.36380
237.50 0.34515
238.00 0.32643
238.50 0.30766
239.00 0.28882
239.50 0.27319
240.00 0.25774
240.50 0.24224
241.00 0.22625
241.50 0.20992
242.00 0.19356
242.50 0.17716
243.00 0.16256
243.50 0.15042
244.00 0.13824
244.50 0.12604
245.00 0.11470
245.50 0.10518
246.00 0.09662
246.50 0.08920
247.00 0.08178
247.50 0.07435
248.00 0.06692
248.50 0.06155
249.00 0.05715
249.50 0.05274
250.00 0.04834
250.50 0.04395
251.00 0.03998
251.50 0.03601
252.00 0.03204
252.50 0.02913
253.00 0.02716
253.50 0.02520
254.00 0.02323
254.50 0.02128
255.00 0.01933
255.50 0.01738
256.00 0.01543
256.50 0.01408
257.00 0.01303
257.50 0.01199
258.00 0.01094
258.50 0.00997
259.00 0.00915
259.50 0.00834
260.00 0.00753
260.50 0.00690
261.00 0.00637
261.50 0.00583
262.00 0.00534
262.50 0.00496
263.00 0.00458
263.50 0.00420
264.00 0.00385
264.50 0.00358
265.00 0.00330
265.50 0.00314
266.00 0.00298
266.50 0.00283
267.00 0.00268
267.50 0.00252
268.00 0.00244
268.50 0.00237
269.00 0.00230
269.50 0.00223
270.00 0.00217
270.00 0.00217
270.50 0.00223
271.00 0.00230
271.50 0.00237
272.00 0.00244
272.50 0.00252
273.00 0.00268
273.50 0.00283
274.00 0.00298
274.50 0.00314
275.00 0.00330
275.50 0.00358
276.00 0.00385
276.50 0.00420
277.00 0.00458
277.50 0.00496
278.00 0.00534
278.50 0.00583
279.00 0.00637
279.50 0.00690
280.00 0.00753
280.50 0.00834
281.00 0.00915
281.50 0.00997
282.00 0.01094
282.50 0.01199
283.00 0.01303
283.50 0.01408
284.00 0.01543
284.50 0.01738
285.00 0.01933
285.50 0.02128
286.00 0.02323
286.50 0.02520
287.00 0.02716
287.50 0.02913
288.00 0.03204
288.50 0.03601
289.00 0.03998
289.50 0.04395
290.00 0.04834
290.50 0.05274
291.00 0.05715
291.50 0.06155
292.00 0.06692
292.50 0.07435
293.00 0.08178
293.50 0.08920
294.00 0.09662
294.50 0.10518
295.00 0.11470
295.50 0.12604
296.00 0.13824
296.50 0.15042
297.00 0.16256
297.50 0.17716
298.00 0.19356
298.50 0.20992
299.00 0.22625
299.50 0.24224
300.00 0.25774
300.50 0.27319
301.00 0.28882
301.50 0.30766
302.00 0.32643
302.50 0.34515
303.00 0.36380
303.50 0.38249
304.00 0.40168
304.50 0.42080
305.00 0.43943
305.50 0.45738
306.00 0.47527
306.50 0.49345
307.00 0.51253
307.50 0.53155
308.00 0.55050
308.50 0.57036
309.00 0.59107
309.50 0.61073
310.00 0.63035
310.50 0.64991
311.00 0.66943
311.50 0.69001
312.00 0.70997
312.50 0.72974
313.00 0.74946
313.50 0.76875
314.00 0.78792
314.50 0.80703
315.00 0.82755
315.50 0.84763
316.00 0.86722
316.50 0.88679
317.00 0.90623
317.50 0.92505
318.00 0.94385
318.50 0.96387
319.00 0.98490
319.50 1.00441
320.00 1.02392
320.50 1.04343
321.00 1.06320
321.50 1.08387
322.00 1.10388
322.50 1.12389
323.00 1.14391
323.50 1.16348
324.00 1.18133
324.50 1.19919
325.00 1.21714
325.50 1.23600
326.00 1.25486
326.50 1.27372
327.00 1.29171
327.50 1.30799
328.00 1.32430
328.50 1.34062
329.00 1.35550
329.50 1.36964
330.00 1.38381
330.50 1.39798
331.00 1.41334
331.50 1.42956
332.00 1.44581
332.50 1.46158
333.00 1.47399
333.50 1.48644
334.00 1.49892
334.50 1.51145
335.00 1.52400
335.50 1.53625
336.00 1.54835
336.50 1.56010
337.00 1.56703
337.50 1.57400
338.00 1.58103
338.50 1.58811
339.00 1.59523
339.50 1.60243
340.00 1.60996
340.50 1.61490
341.00 1.61892
341.50 1.62302
342.00 1.62718
342.50 1.63142
343.00 1.63573
343.50 1.63920
344.00 1.64268
344.50 1.64623
345.00 1.64886
345.50 1.65089
346.00 1.65300
346.50 1.65519
347.00 1.65511
347.50 1.65483
348.00 1.65462
348.50 1.65458
349.00 1.65590
349.50 1.65731
350.00 1.65601
350.50 1.65444
351.00 1.65298
351.50 1.65163
352.00 1.65056
352.50 1.64986
353.00 1.64887
353.50 1.64692
354.00 1.64509
354.50 1.64338
355.00 1.64190
355.50 1.64061
356.00 1.63944
356.50 1.63838
357.00 1.63745
357.50 1.63672
358.00 1.63624
358.50 1.63589
359.00 1.63567
359.50 1.63558
360.00 1.63561
